Distance (in),Time (s),X (in),Y (in),Velocity (in/s),Orientation (deg),Way X (in),Way Y (in),Way Velocity (in/s),Way Orientation (deg)
0,0,480,94,24,0,480,94,24,0
1,0.040767386,480,93,25.05882353,359.7058824,480,60,60,350
2,0.079847846,480,92,26.11764706,359.4117647,480,26,96,300
3,0.11737544,480,91,27.17647059,359.1176471,410,26,120,180
4,0.153468858,480,90,28.23529412,358.8235294,315,26,120,180
5,0.188233684,480,89,29.29411765,358.5294118,300,26,0,180
6,0.221764256,480,88,30.35294118,358.2352941,,,,
7,0.254145208,480,87,31.41176471,357.9411765,,,,
8,0.285452759,480,86,32.47058824,357.6470588,,,,
9,0.315755789,480,85,33.52941176,357.3529412,,,,
10,0.345116757,480,84,34.58823529,357.0588235,,,,
11,0.373592469,480,83,35.64705882,356.7647059,,,,
12,0.401234745,480,82,36.70588235,356.4705882,,,,
13,0.428090985,480,81,37.76470588,356.1764706,,,,
14,0.454204656,480,80,38.82352941,355.8823529,,,,
15,0.479615718,480,79,39.88235294,355.5882353,,,,
16,0.504360987,480,78,40.94117647,355.2941176,,,,
17,0.528474462,480,77,42,355,,,,
18,0.551987602,480,76,43.05882353,354.7058824,,,,
19,0.574929572,480,75,44.11764706,354.4117647,,,,
20,0.597327464,480,74,45.17647059,354.1176471,,,,
21,0.619206486,480,73,46.23529412,353.8235294,,,,
22,0.640590134,480,72,47.29411765,353.5294118,,,,
23,0.661500343,480,71,48.35294118,353.2352941,,,,
24,0.681957623,480,70,49.41176471,352.9411765,,,,
25,0.70198118,480,69,50.47058824,352.6470588,,,,
26,0.721589023,480,68,51.52941176,352.3529412,,,,
27,0.740798063,480,67,52.58823529,352.0588235,,,,
28,0.759624198,480,66,53.64705882,351.7647059,,,,
29,0.778082396,480,65,54.70588235,351.4705882,,,,
30,0.796186762,480,64,55.76470588,351.1764706,,,,
31,0.813950607,480,63,56.82352941,350.8823529,,,,
32,0.831386505,480,62,57.88235294,350.5882353,,,,
33,0.848506344,480,61,58.94117647,350.2941176,,,,
34,0.865321378,480,60,60,350,,,,
35,0.881842272,480,59,61.05882353,348.5294118,,,,
36,0.89807914,480,58,62.11764706,347.0588235,,,,
37,0.914041581,480,57,63.17647059,345.5882353,,,,
38,0.929738719,480,56,64.23529412,344.1176471,,,,
38.77124064,0.941647066,479.9902808,55.2288206,65.29411765,342.6470588,,,,
39.54248128,0.953363859,479.9611296,54.45813109,66.35294118,341.1764706,,,,
40.31372192,0.964895161,479.9125647,53.68842103,67.41176471,339.7058824,,,,
41.08496256,0.976246755,479.844617,52.92017937,68.47058824,338.2352941,,,,
41.8562032,0.987424156,479.7573298,52.15389414,69.52941176,336.7647059,,,,
42.62744384,0.998432628,479.6507583,51.3900521,70.58823529,335.2941176,,,,
43.39868448,1.009277203,479.5249705,50.62913848,71.64705882,333.8235294,,,,
44.16992512,1.019962689,479.3800461,49.87163664,72.70588235,332.3529412,,,,
44.94116576,1.030493685,479.2160772,49.11802777,73.76470588,330.8823529,,,,
45.7124064,1.040874597,479.033168,48.3687906,74.82352941,329.4117647,,,,
46.48364704,1.05110964,478.8314346,47.62440107,75.88235294,327.9411765,,,,
47.25488768,1.061202859,478.6110053,46.88533204,76.94117647,326.4705882,,,,
48.02612832,1.071158129,478.3720199,46.152053,78,325,,,,
48.79736896,1.080979171,478.1146305,45.42502976,79.05882353,323.5294118,,,,
49.5686096,1.090669556,477.8390004,44.70472415,80.11764706,322.0588235,,,,
50.33985024,1.100232715,477.5453047,43.99159373,81.17647059,320.5882353,,,,
51.11109088,1.109671945,477.2337301,43.28609152,82.23529412,319.1176471,,,,
51.88233152,1.118990418,476.9044744,42.58866568,83.29411765,317.6470588,,,,
52.65357216,1.128191183,476.5577468,41.89975924,84.35294118,316.1764706,,,,
53.4248128,1.137277178,476.1937675,41.21980981,85.41176471,314.7058824,,,,
54.19605344,1.146251231,475.8127678,40.54924934,86.47058824,313.2352941,,,,
54.96729408,1.155116066,475.4149897,39.88850378,87.52941176,311.7647059,,,,
55.73853471,1.16387431,475.0006859,39.23799286,88.58823529,310.2941176,,,,
56.50977535,1.172528495,474.5701195,38.59812982,89.64705882,308.8235294,,,,
57.28101599,1.181081066,474.123564,37.96932113,90.70588235,307.3529412,,,,
58.05225663,1.18953438,473.6613033,37.35196621,91.76470588,305.8823529,,,,
58.82349727,1.197890716,473.1836308,36.74645725,92.82352941,304.4117647,,,,
59.59473791,1.206152273,472.69085,36.15317889,93.88235294,302.9411765,,,,
60.36597855,1.214321177,472.1832739,35.572508,94.94117647,301.4705882,,,,
61.13721919,1.222399483,471.6612251,35.00481344,96,300,,,,
61.90845983,1.230418919,471.125035,34.45045583,96.34285714,298.2857143,,,,
62.67970047,1.238409867,470.5750444,33.90978733,96.68571429,296.5714286,,,,
63.45094111,1.246372529,470.0116025,33.38315139,97.02857143,294.8571429,,,,
64.22218175,1.254307103,469.4350674,32.87088255,97.37142857,293.1428571,,,,
64.99342239,1.262213788,468.8458052,32.37330622,97.71428571,291.4285714,,,,
65.76466303,1.270092779,468.2441903,31.89073847,98.05714286,289.7142857,,,,
66.53590367,1.277944269,467.6306048,31.42348587,98.4,288,,,,
67.30714431,1.285768449,467.0054386,30.97184521,98.74285714,286.2857143,,,,
68.07838495,1.293565509,466.3690887,30.53610341,99.08571429,284.5714286,,,,
68.84962559,1.301335637,465.7219593,30.11653727,99.42857143,282.8571429,,,,
69.62086623,1.309079017,465.0644617,29.7134133,99.77142857,281.1428571,,,,
70.39210687,1.316795833,464.3970133,29.32698759,100.1142857,279.4285714,,,,
71.16334751,1.324486266,463.7200383,28.95750561,100.4571429,277.7142857,,,,
71.93458815,1.332150498,463.0339666,28.60520206,100.8,276,,,,
72.70582879,1.339788704,462.3392341,28.27030076,101.1428571,274.2857143,,,,
73.47706943,1.347401063,461.6362821,27.95301443,101.4857143,272.5714286,,,,
74.24831007,1.354987747,460.9255572,27.65354464,101.8285714,270.8571429,,,,
75.01955071,1.36254893,460.2075107,27.37208161,102.1714286,269.1428571,,,,
75.79079135,1.370084782,459.482599,27.10880414,102.5142857,267.4285714,,,,
76.56203199,1.377595472,458.7512823,26.86387948,102.8571429,265.7142857,,,,
77.33327263,1.385081169,458.0140254,26.63746321,103.2,264,,,,
78.10451327,1.392542038,457.2712965,26.42969916,103.5428571,262.2857143,,,,
78.87575391,1.399978242,456.5235674,26.24071931,103.8857143,260.5714286,,,,
79.64699455,1.407389945,455.7713132,26.0706437,104.2285714,258.8571429,,,,
80.41823519,1.414777308,455.0150117,25.91958039,104.5714286,257.1428571,,,,
81.4364277,1.424498185,454,26,104.9142857,255.4285714,,,,
82.4364277,1.434014227,453,26,105.2571429,253.7142857,,,,
83.4364277,1.443499322,452,26,105.6,252,,,,
84.4364277,1.452953671,451,26,105.9428571,250.2857143,,,,
85.4364277,1.462377472,450,26,106.2857143,248.5714286,,,,
86.4364277,1.471770924,449,26,106.6285714,246.8571429,,,,
87.4364277,1.48113422,448,26,106.9714286,245.1428571,,,,
88.4364277,1.490467553,447,26,107.3142857,243.4285714,,,,
89.4364277,1.499771115,446,26,107.6571429,241.7142857,,,,
90.4364277,1.509045095,445,26,108,240,,,,
91.4364277,1.51828968,444,26,108.3428571,238.2857143,,,,
92.4364277,1.527505057,443,26,108.6857143,236.5714286,,,,
93.4364277,1.536691408,442,26,109.0285714,234.8571429,,,,
94.4364277,1.545848918,441,26,109.3714286,233.1428571,,,,
95.4364277,1.554977765,440,26,109.7142857,231.4285714,,,,
96.4364277,1.564078129,439,26,110.0571429,229.7142857,,,,
97.4364277,1.573150187,438,26,110.4,228,,,,
98.4364277,1.582194114,437,26,110.7428571,226.2857143,,,,
99.4364277,1.591210086,436,26,111.0857143,224.5714286,,,,
100.4364277,1.600198273,435,26,111.4285714,222.8571429,,,,
101.4364277,1.609158846,434,26,111.7714286,221.1428571,,,,
102.4364277,1.618091975,433,26,112.1142857,219.4285714,,,,
103.4364277,1.626997828,432,26,112.4571429,217.7142857,,,,
104.4364277,1.635876569,431,26,112.8,216,,,,
105.4364277,1.644728365,430,26,113.1428571,214.2857143,,,,
106.4364277,1.653553378,429,26,113.4857143,212.5714286,,,,
107.4364277,1.662351769,428,26,113.8285714,210.8571429,,,,
108.4364277,1.671123699,427,26,114.1714286,209.1428571,,,,
109.4364277,1.679869326,426,26,114.5142857,207.4285714,,,,
110.4364277,1.688588808,425,26,114.8571429,205.7142857,,,,
111.4364277,1.6972823,424,26,115.2,204,,,,
112.4364277,1.705949957,423,26,115.5428571,202.2857143,,,,
113.4364277,1.714591932,422,26,115.8857143,200.5714286,,,,
114.4364277,1.723208378,421,26,116.2285714,198.8571429,,,,
115.4364277,1.731799443,420,26,116.5714286,197.1428571,,,,
116.4364277,1.740365277,419,26,116.9142857,195.4285714,,,,
117.4364277,1.748906029,418,26,117.2571429,193.7142857,,,,
118.4364277,1.757421844,417,26,117.6,192,,,,
119.4364277,1.765912868,416,26,117.9428571,190.2857143,,,,
120.4364277,1.774379244,415,26,118.2857143,188.5714286,,,,
121.4364277,1.782821116,414,26,118.6285714,186.8571429,,,,
122.4364277,1.791238624,413,26,118.9714286,185.1428571,,,,
123.4364277,1.79963191,412,26,119.3142857,183.4285714,,,,
124.4364277,1.808001111,411,26,119.6571429,181.7142857,,,,
125.4364277,1.816346366,410,26,120,180,,,,
126.4364277,1.8246797,409,26,120,180,,,,
127.4364277,1.833013033,408,26,120,180,,,,
128.4364277,1.841346366,407,26,120,180,,,,
129.4364277,1.8496797,406,26,120,180,,,,
130.4364277,1.858013033,405,26,120,180,,,,
131.4364277,1.866346366,404,26,120,180,,,,
132.4364277,1.8746797,403,26,120,180,,,,
133.4364277,1.883013033,402,26,120,180,,,,
134.4364277,1.891346366,401,26,120,180,,,,
135.4364277,1.8996797,400,26,120,180,,,,
136.4364277,1.908013033,399,26,120,180,,,,
137.4364277,1.916346366,398,26,120,180,,,,
138.4364277,1.9246797,397,26,120,180,,,,
139.4364277,1.933013033,396,26,120,180,,,,
140.4364277,1.941346366,395,26,120,180,,,,
141.4364277,1.9496797,394,26,120,180,,,,
142.4364277,1.958013033,393,26,120,180,,,,
143.4364277,1.966346366,392,26,120,180,,,,
144.4364277,1.9746797,391,26,120,180,,,,
145.4364277,1.983013033,390,26,120,180,,,,
146.4364277,1.991346366,389,26,120,180,,,,
147.4364277,1.9996797,388,26,120,180,,,,
148.4364277,2.008013033,387,26,120,180,,,,
149.4364277,2.016346366,386,26,120,180,,,,
150.4364277,2.0246797,385,26,120,180,,,,
151.4364277,2.033013033,384,26,120,180,,,,
152.4364277,2.041346366,383,26,120,180,,,,
153.4364277,2.0496797,382,26,120,180,,,,
154.4364277,2.058013033,381,26,120,180,,,,
155.4364277,2.066346366,380,26,120,180,,,,
156.4364277,2.0746797,379,26,120,180,,,,
157.4364277,2.083013033,378,26,120,180,,,,
158.4364277,2.091346366,377,26,120,180,,,,
159.4364277,2.0996797,376,26,120,180,,,,
160.4364277,2.108013033,375,26,120,180,,,,
161.4364277,2.116346366,374,26,120,180,,,,
162.4364277,2.1246797,373,26,120,180,,,,
163.4364277,2.133013033,372,26,120,180,,,,
164.4364277,2.141346366,371,26,120,180,,,,
165.4364277,2.1496797,370,26,120,180,,,,
166.4364277,2.158013033,369,26,120,180,,,,
167.4364277,2.166346366,368,26,120,180,,,,
168.4364277,2.1746797,367,26,120,180,,,,
169.4364277,2.183013033,366,26,120,180,,,,
170.4364277,2.191346366,365,26,120,180,,,,
171.4364277,2.1996797,364,26,120,180,,,,
172.4364277,2.208013033,363,26,120,180,,,,
173.4364277,2.216346366,362,26,120,180,,,,
174.4364277,2.2246797,361,26,120,180,,,,
175.4364277,2.233013033,360,26,120,180,,,,
176.4364277,2.241346366,359,26,120,180,,,,
177.4364277,2.2496797,358,26,120,180,,,,
178.4364277,2.258013033,357,26,120,180,,,,
179.4364277,2.266346366,356,26,120,180,,,,
180.4364277,2.2746797,355,26,120,180,,,,
181.4364277,2.283013033,354,26,120,180,,,,
182.4364277,2.291346366,353,26,120,180,,,,
183.4364277,2.2996797,352,26,120,180,,,,
184.4364277,2.308013033,351,26,120,180,,,,
185.4364277,2.316346366,350,26,120,180,,,,
186.4364277,2.3246797,349,26,120,180,,,,
187.4364277,2.333013033,348,26,120,180,,,,
188.4364277,2.341346366,347,26,120,180,,,,
189.4364277,2.3496797,346,26,120,180,,,,
190.4364277,2.358013033,345,26,120,180,,,,
191.4364277,2.366346366,344,26,120,180,,,,
192.4364277,2.3746797,343,26,120,180,,,,
193.4364277,2.383013033,342,26,120,180,,,,
194.4364277,2.391346366,341,26,120,180,,,,
195.4364277,2.3996797,340,26,120,180,,,,
196.4364277,2.408013033,339,26,120,180,,,,
197.4364277,2.416346366,338,26,120,180,,,,
198.4364277,2.4246797,337,26,120,180,,,,
199.4364277,2.433013033,336,26,120,180,,,,
200.4364277,2.441346366,335,26,120,180,,,,
201.4364277,2.4496797,334,26,120,180,,,,
202.4364277,2.458013033,333,26,120,180,,,,
203.4364277,2.466346366,332,26,120,180,,,,
204.4364277,2.4746797,331,26,120,180,,,,
205.4364277,2.483013033,330,26,120,180,,,,
206.4364277,2.491346366,329,26,120,180,,,,
207.4364277,2.4996797,328,26,120,180,,,,
208.4364277,2.508013033,327,26,120,180,,,,
209.4364277,2.516346366,326,26,120,180,,,,
210.4364277,2.5246797,325,26,120,180,,,,
211.4364277,2.533013033,324,26,120,180,,,,
212.4364277,2.541346366,323,26,120,180,,,,
213.4364277,2.5496797,322,26,120,180,,,,
214.4364277,2.558013033,321,26,120,180,,,,
215.4364277,2.566346366,320,26,120,180,,,,
216.4364277,2.5746797,319,26,120,180,,,,
217.4364277,2.583013033,318,26,120,180,,,,
218.4364277,2.591346366,317,26,120,180,,,,
219.4364277,2.5996797,316,26,120,180,,,,
220.4364277,2.608013033,315,26,120,180,,,,
221.4364277,2.616633723,314,26,112,180,,,,
222.4364277,2.625892982,313,26,104,180,,,,
223.4364277,2.635892982,312,26,96,180,,,,
224.4364277,2.646762547,311,26,88,180,,,,
225.4364277,2.658667309,310,26,80,180,,,,
226.4364277,2.671825204,309,26,72,180,,,,
227.4364277,2.686531086,308,26,64,180,,,,
228.4364277,2.703197753,307,26,56,180,,,,
229.4364277,2.722428522,306,26,48,180,,,,
230.4364277,2.745155795,305,26,40,180,,,,
231.4364277,2.772933572,304,26,32,180,,,,
232.4364277,2.808647858,303,26,24,180,,,,
233.4364277,2.858647858,302,26,16,180,,,,
234.4364277,2.941981191,301,26,8,180,,,,
235.4364277,3.191981191,300,26,0,180,,,,
