Distance (in),Time (s),X (in),Y (in),Velocity (in/s),Orientation (deg),Way X (in),Way Y (in),Way Velocity (in/s),Way Orientation (deg)
0,0,100,100,12,0,100,100,12,0
1,0.080791133,101,100,12.75519194,0,163.56,100,60,0
2,0.156936427,102,100,13.51038389,0,165,165,60,90
3,0.22894114,103,100,14.26557583,0,165,205.78,0,90
4,0.297232355,104,100,15.02076778,0,,,,
5,0.36217432,105,100,15.77595972,0,,,,
6,0.424080195,106,100,16.53115167,0,,,,
7,0.483221181,107,100,17.28634361,0,,,,
8,0.539833693,108,100,18.04153556,0,,,,
9,0.594125069,109,100,18.7967275,0,,,,
10,0.646278148,110,100,19.55191945,0,,,,
11,0.696454983,111,100,20.30711139,0,,,,
12,0.744799877,112,100,21.06230334,0,,,,
13,0.791441888,113,100,21.81749528,0,,,,
14,0.836496895,114,100,22.57268722,0,,,,
15,0.880069342,115,100,23.32787917,0,,,,
16,0.922253689,116,100,24.08307111,0,,,,
17,0.963135649,117,100,24.83826306,0,,,,
18,1.002793231,118,100,25.593455,0,,,,
19,1.041297641,119,100,26.34864695,0,,,,
20,1.078714049,120,100,27.10383889,0,,,,
21,1.115102251,121,100,27.85903084,0,,,,
22,1.150517246,122,100,28.61422278,0,,,,
23,1.185009735,123,100,29.36941473,0,,,,
24,1.218626558,124,100,30.12460667,0,,,,
25,1.251411076,125,100,30.87979862,0,,,,
26,1.283403506,126,100,31.63499056,0,,,,
27,1.314641219,127,100,32.3901825,0,,,,
28,1.345159004,128,100,33.14537445,0,,,,
28.77213311,1.36819196,128.7720918,100.0079847,33.90056639,0,,,,
29.54426621,1.39071747,129.5438534,100.0319353,34.65575834,0,,,,
30.31639932,1.412757412,130.3149546,100.0718416,35.41095028,0,,,,
31.08853243,1.434332279,131.0850655,100.1276866,36.16614223,0,,,,
31.86066553,1.455461292,131.8538568,100.1994463,36.92133417,0,,,,
32.63279864,1.476162505,132.6209996,100.2870901,37.67652612,0,,,,
33.40493175,1.496452898,133.3861658,100.3905804,38.43171806,0,,,,
34.17706485,1.51634846,134.1490281,100.509873,39.18691001,0,,,,
34.94919796,1.535864263,134.9092601,100.6449169,39.94210195,0,,,,
35.72133107,1.555014533,135.6665366,100.7956542,40.6972939,0,,,,
36.49346418,1.573812712,136.4205338,100.9620206,41.45248584,0,,,,
37.26559728,1.592271511,137.1709291,101.1439449,42.20767778,0,,,,
38.03773039,1.61040297,137.9174015,101.3413492,42.96286973,0,,,,
38.8098635,1.628218494,138.6596318,101.554149,43.71806167,0,,,,
39.5819966,1.645728905,139.3973024,101.7822535,44.47325362,0,,,,
40.35412971,1.662944479,140.1300977,102.025565,45.22844556,0,,,,
41.12626282,1.679874979,140.8577045,102.2839794,45.98363751,0,,,,
41.89839592,1.696529694,141.5798113,102.5573861,46.73882945,0,,,,
42.67052903,1.712917463,142.2961093,102.8456684,47.4940214,0,,,,
43.44266214,1.729046709,143.0062922,103.1487027,48.24921334,0,,,,
44.21479524,1.744925462,143.7100561,103.4663595,49.00440529,0,,,,
44.98692835,1.760561384,144.4071001,103.798503,49.75959723,0,,,,
45.75906146,1.77596179,145.0971259,104.144991,50.51478918,0,,,,
46.53119456,1.791133669,145.7798383,104.5056754,51.26998112,0,,,,
47.30332767,1.806083704,146.4549455,104.8804018,52.02517306,0,,,,
48.07546078,1.82081829,147.1221585,105.26901,52.78036501,0,,,,
48.84759389,1.835343548,147.781192,105.6713337,53.53555695,0,,,,
49.61972699,1.849665343,148.4317641,106.0872009,54.2907489,0,,,,
50.3918601,1.863789295,149.0735965,106.5164336,55.04594084,0,,,,
51.16399321,1.877720797,149.7064146,106.9588483,55.80113279,0,,,,
51.93612631,1.891465023,150.3299478,107.4142557,56.55632473,0,,,,
52.70825942,1.90502694,150.9439293,107.8824609,57.31151668,0,,,,
53.48039253,1.918411321,151.5480966,108.3632639,58.06670862,0,,,,
54.25252563,1.931622756,152.1421911,108.8564588,58.82190057,0,,,,
55.02465874,1.944665656,152.7259588,109.3618347,59.57709251,0,,,,
55.79679185,1.957580054,153.29915,109.8791754,60,0,,,,
56.56892495,1.970448939,153.8615194,110.4082597,60,1.38427573,,,,
57.34105806,1.983317824,154.4128266,110.9488612,60,2.76855146,,,,
58.11319117,1.99618671,154.9528356,111.5007487,60,4.15282719,,,,
58.88532427,2.009055595,155.4813155,112.063686,60,5.53710292,,,,
59.65745738,2.02192448,155.9980403,112.6374325,60,6.92137865,,,,
60.42959049,2.034793365,156.5027889,113.2217427,60,8.30565438,,,,
61.2017236,2.04766225,156.9953454,113.8163666,60,9.68993011,,,,
61.9738567,2.060531135,157.4754991,114.42105,60,11.07420584,,,,
62.74598981,2.07340002,157.9430447,115.0355341,60,12.45848157,,,,
63.51812292,2.086268905,158.3977821,115.659556,60,13.8427573,,,,
64.29025602,2.09913779,158.8395168,116.292849,60,15.22703303,,,,
65.06238913,2.112006676,159.2680599,116.935142,60,16.61130876,,,,
65.83452224,2.124875561,159.6832281,117.5861604,60,17.99558449,,,,
66.60665534,2.137744446,160.0848437,118.2456257,60,19.37986022,,,,
67.37878845,2.150613331,160.472735,118.9132557,60,20.76413595,,,,
68.15092156,2.163482216,160.8467361,119.588765,60,22.14841168,,,,
68.92305466,2.176351101,161.2066869,120.2718644,60,23.53268741,,,,
69.69518777,2.189219986,161.5524336,120.962262,60,24.91696314,,,,
70.46732088,2.202088871,161.8838282,121.6596623,60,26.30123887,,,,
71.23945398,2.214957757,162.200729,122.363767,60,27.6855146,,,,
72.01158709,2.227826642,162.5030003,123.0742749,60,29.06979033,,,,
72.7837202,2.240695527,162.790513,123.7908822,60,30.45406606,,,,
73.55585331,2.253564412,163.063144,124.5132823,60,31.83834179,,,,
74.32798641,2.266433297,163.3207768,125.2411662,60,33.22261752,,,,
75.10011952,2.279302182,163.563301,125.9742224,60,34.60689325,,,,
75.87225263,2.292171067,163.790613,126.7121376,60,35.99116898,,,,
76.64438573,2.305039952,164.0026155,127.454596,60,37.37544471,,,,
77.41651884,2.317908837,164.1992179,128.20128,60,38.75972044,,,,
78.18865195,2.330777723,164.3803361,128.9518703,60,40.14399617,,,,
79.24103165,2.348317384,164.2244524,129.9926408,60,41.5282719,,,,
80.24103165,2.364984051,164.2466008,130.9923955,60,42.91254763,,,,
81.24103165,2.381650718,164.2687492,131.9921502,60,44.29682336,,,,
82.24103165,2.398317384,164.2908976,132.9919049,60,45.68109909,,,,
83.24103165,2.414984051,164.313046,133.9916596,60,47.06537482,,,,
84.24103165,2.431650718,164.3351944,134.9914143,60,48.44965055,,,,
85.24103165,2.448317384,164.3573428,135.991169,60,49.83392628,,,,
86.24103165,2.464984051,164.3794912,136.9909237,60,51.21820201,,,,
87.24103165,2.481650718,164.4016396,137.9906784,60,52.60247774,,,,
88.24103165,2.498317384,164.4237881,138.9904331,60,53.98675347,,,,
89.24103165,2.514984051,164.4459365,139.9901878,60,55.3710292,,,,
90.24103165,2.531650718,164.4680849,140.9899424,60,56.75530493,,,,
91.24103165,2.548317384,164.4902333,141.9896971,60,58.13958066,,,,
92.24103165,2.564984051,164.5123817,142.9894518,60,59.52385639,,,,
93.24103165,2.581650718,164.5345301,143.9892065,60,60.90813212,,,,
94.24103165,2.598317384,164.5566785,144.9889612,60,62.29240785,,,,
95.24103165,2.614984051,164.5788269,145.9887159,60,63.67668358,,,,
96.24103165,2.631650718,164.6009753,146.9884706,60,65.06095931,,,,
97.24103165,2.648317384,164.6231238,147.9882253,60,66.44523504,,,,
98.24103165,2.664984051,164.6452722,148.98798,60,67.82951077,,,,
99.24103165,2.681650718,164.6674206,149.9877347,60,69.2137865,,,,
100.2410317,2.698317384,164.689569,150.9874894,60,70.59806223,,,,
101.2410317,2.714984051,164.7117174,151.9872441,60,71.98233796,,,,
102.2410317,2.731650718,164.7338658,152.9869988,60,73.36661369,,,,
103.2410317,2.748317384,164.7560142,153.9867535,60,74.75088942,,,,
104.2410317,2.764984051,164.7781626,154.9865082,60,76.13516515,,,,
105.2410317,2.781650718,164.8003111,155.9862629,60,77.51944088,,,,
106.2410317,2.798317384,164.8224595,156.9860175,60,78.90371661,,,,
107.2410317,2.814984051,164.8446079,157.9857722,60,80.28799234,,,,
108.2410317,2.831650718,164.8667563,158.9855269,60,81.67226807,,,,
109.2410317,2.848317384,164.8889047,159.9852816,60,83.0565438,,,,
110.2410317,2.864984051,164.9110531,160.9850363,60,84.44081953,,,,
111.2410317,2.881650718,164.9332015,161.984791,60,85.82509526,,,,
112.2410317,2.898317384,164.9553499,162.9845457,60,87.20937099,,,,
113.2410317,2.914984051,164.9774983,163.9843004,60,88.59364672,,,,
114.2410317,2.931650718,164.9996468,164.9840551,60,89.97792245,,,,
114.7490562,2.940117793,165.0073833,165.4920207,60,90,,,,
115.2570807,2.948689971,165.008088,166.0000448,58.52869053,90,,,,
116.2570687,2.965992886,165,167,57.05738107,90,,,,
117.2570687,2.983748023,165,168,55.5860716,90,,,,
118.2570687,3.001979425,165,169,54.11476214,90,,,,
119.2570687,3.020713347,165,170,52.64345267,90,,,,
120.2570687,3.039978275,165,171,51.17214321,90,,,,
121.2570687,3.05980519,165,172,49.70083374,90,,,,
122.2570687,3.080227867,165,173,48.22952428,90,,,,
123.2570687,3.101283216,165,174,46.75821481,90,,,,
124.2570687,3.12301169,165,175,45.28690535,90,,,,
125.2570687,3.145457749,165,176,43.81559588,90,,,,
126.2570687,3.168670408,165,177,42.34428641,90,,,,
127.2570687,3.192703883,165,178,40.87297695,90,,,,
128.2570687,3.21761835,165,179,39.40166748,90,,,,
129.2570687,3.243480857,165,180,37.93035802,90,,,,
130.2570687,3.270366405,165,181,36.45904855,90,,,,
131.2570687,3.298359266,165,182,34.98773909,90,,,,
132.2570687,3.32755457,165,183,33.51642962,90,,,,
133.2570687,3.358060255,165,184,32.04512016,90,,,,
134.2570687,3.389999478,165,185,30.57381069,90,,,,
135.2570687,3.423513613,165,186,29.10250123,90,,,,
136.2570687,3.458766034,165,187,27.63119176,90,,,,
137.2570687,3.495946924,165,188,26.1598823,90,,,,
138.2570687,3.535279485,165,189,24.68857283,90,,,,
139.2570687,3.577028052,165,190,23.21726336,90,,,,
140.2570687,3.621508855,165,191,21.7459539,90,,,,
141.2570687,3.66910456,165,192,20.27464443,90,,,,
142.2570687,3.720284279,165,193,18.80333497,90,,,,
143.2570687,3.775631727,165,194,17.3320255,90,,,,
144.2570687,3.835885864,165,195,15.86071604,90,,,,
145.2570687,3.902001299,165,196,14.38940657,90,,,,
146.2570687,3.975241241,165,197,12.91809711,90,,,,
147.2570687,4.057326588,165,198,11.44678764,90,,,,
148.2570687,4.150687393,165,199,9.975478176,90,,,,
149.2570687,4.25891457,165,200,8.50416871,90,,,,
150.2570687,4.387639317,165,201,7.032859245,90,,,,
151.2570687,4.54643994,165,202,5.561549779,90,,,,
152.2570687,4.753655387,165,203,4.090240314,90,,,,
153.2570687,5.051754803,165,204,2.618930848,90,,,,
154.2570687,5.582744386,165,205,1.147621383,90,,,,
155.0370687,6.942077719,165,205.78,0,90,,,,
