Distance (in),Time (s),X (in),Y (in),Velocity (in/s),Orientation (deg),Touch,Way X (in),Way Y (in),Way Velocity (in/s),Way Orientation (deg),Way Turn Radius (in),Touch this Point
0.0,0.0,180.0,165.0,0.0,270.0,0,180.0,165.0,0.0,270.0,3.0,0.0
0.9999999999999946,0.16666666666666577,180.98890840103263,165.1485266789741,12.0,270.0,0,211.16,169.68,180.0,270.0,12.0,0.0
1.9999999999999891,0.24999999999999867,181.97781680206526,165.2970533579482,12.0,270.0,0,225.0,218.0,0.0,0.0,3.0,1.0
2.9999999999999836,0.33333333333333154,182.9667252030979,165.44558003692228,12.0,270.0,0,232.67,170.32,180.0,270.0,12.0,0.0
3.9999999999999782,0.4166666666666644,183.95563360413053,165.59410671589637,12.0,270.0,0,285.0,80.0,180.0,270.0,15.0,0.0
4.9999999999999725,0.49384911292722755,184.94454200516316,165.74263339487047,13.91262776575017,270.0,0,310.0,140.0,180.0,270.0,20.0,0.0
5.999999999999967,0.5591919744194962,185.9334504061958,165.89116007384456,16.695153318900203,270.0,0,312.0,270.0,0.0,270.0,3.0,1.0
6.999999999999962,0.6144820879898774,186.92235880722842,166.03968675281865,19.477678872050237,270.0,0,322.22,142.4,180.0,270.0,10.0,0.0
7.9999999999999565,0.6624001864175411,187.91126720826105,166.18821343179275,22.26020442520027,270.0,0,332.03,101.64,180.0,270.0,20.0,0.0
8.99999999999995,0.7046808615007737,188.90017560929368,166.33674011076684,25.0427299783503,270.0,0,395.17,102.86,180.0,270.0,15.0,0.0
9.999999999999945,0.742510939206824,189.88908401032631,166.48526678974093,27.825255531500336,270.0,0,403.75,270.0,0.0,270.0,3.0,1.0
10.99999999999994,0.7767381523694409,190.87799241135895,166.63379346871503,30.60778108465037,270.0,0,408.04,173.67,180.0,270.0,10.0,0.0
11.999999999999934,0.8079890861266128,191.86690081239158,166.78232014768912,33.39030663780041,270.0,0,479.76,159.87,180.0,270.0,3.0,0.0
12.999999999999929,0.836739945183211,192.8558092134242,166.9308468266632,36.172832190950444,270.0,0,,,,,,
13.999999999999924,0.8633611109763575,193.84471761445684,167.0793735056373,38.95535774410048,270.0,0,,,,,,
14.999999999999918,0.8881463343010111,194.83362601548947,167.2279001846114,41.73788329725052,270.0,0,,,,,,
15.999999999999913,0.911332510959558,195.8225344165221,167.3764268635855,44.52040885040056,270.0,0,,,,,,
16.999999999999908,0.9331134647903142,196.81144281755473,167.5249535425596,47.302934403550594,270.0,0,,,,,,
17.9999999999999,0.9536497926878843,197.80035121858737,167.67348022153368,50.085459956700625,270.0,0,,,,,,
18.999999999999893,0.9730760488072073,198.78925961962,167.82200690050777,52.867985509850655,270.0,0,,,,,,
19.999999999999886,0.991506086664001,199.77816802065263,167.97053357948187,55.650511063000685,270.0,0,,,,,,
20.99999999999988,1.0090370982838779,200.76707642168526,168.11906025845596,58.433036616150716,270.0,0,,,,,,
21.999999999999872,1.0257527140144582,201.7559848227179,168.26758693743005,61.215562169300746,270.0,0,,,,,,
22.999999999999865,1.041725413490346,202.74489322375052,168.41611361640415,63.99808772245078,270.0,0,,,,,,
23.99997140561282,1.057017995636456,203.7335104313006,168.56637614992275,66.7805337109882,270.0,0,,,,,,
24.999682078877278,1.0716826609047019,204.71169976194557,168.77269402033448,69.5622542051034,270.0,0,,,,,,
25.999392752141734,1.08577239721837,205.66932130367587,169.05971738707132,72.34397469921859,270.0,0,,,,,,
26.999103425406204,1.0993305841186711,206.59972875447164,169.42545418552427,75.12569519333383,270.0,0,,,,,,
27.998814098670668,1.1123958700232786,207.49646468971355,169.8673660462892,77.90741568744903,270.0,0,,,,,,
28.99852477193511,1.1250028360825421,208.35330537946447,170.3823859125332,80.68913618156418,270.0,0,,,,,,
29.998235445199555,1.1371825475440773,209.16430398381027,170.96693932667773,83.47085667567934,270.0,0,,,,,,
30.99794611846404,1.1493109808761495,209.92383182646572,171.61696923865878,81.38319263024052,272.25096245051765,0,,,,,,
31.99765679172848,1.1617545784565222,210.62661746018898,172.32796416358514,79.29552858480177,274.5019249010352,0,,,,,,
32.99736746499294,1.174530156714705,211.26778325287452,173.0949894933682,77.20786453936299,276.7528873515528,0,,,,,,
33.9970781382574,1.187655914900447,211.8428792404005,173.91272174500708,75.1202004939242,279.00384980207036,0,,,,,,
34.99678881152187,1.2011515909695714,212.3479140112781,174.7754855078318,73.0325364484854,281.25481225258795,0,,,,,,
35.99649948478632,1.2150386400731616,212.77938240875025,175.67729283327427,70.94487240304663,283.50577470310554,0,,,,,,
36.996499484786305,1.229344640618266,213.05473412277487,176.63863638975326,68.85660416577586,285.75738860572324,0,,,,,,
37.99649948478629,1.2440911909106358,213.3300858367995,177.59997994623225,66.7683359285051,288.0090025083409,0,,,,,,
38.99649948478628,1.2593062863011106,213.60543755082412,178.56132350271125,64.68006769123433,290.2606164109586,0,,,,,,
39.99649948478626,1.2750206782155333,213.88078926484874,179.52266705919024,62.59179945396355,292.5122303135763,0,,,,,,
40.99649948478625,1.29126824820136,214.15614097887337,180.48401061566923,60.50353121669278,294.763844216194,0,,,,,,
41.996499484786234,1.3080864476585599,214.431492692898,181.44535417214823,58.415262979422,297.0154581188117,0,,,,,,
42.99649948478622,1.3255168175999728,214.7068444069226,182.40669772862722,56.32699474215123,299.2670720214294,0,,,,,,
43.996499484786206,1.3436056065794384,214.98219612094724,183.36804128510622,54.238726504880454,301.5186859240471,0,,,,,,
44.99649948478619,1.3624045099104198,215.25754783497186,184.3293848415852,52.15045826760968,303.77029982666477,0,,,,,,
45.99649948478618,1.3819715599116096,215.53289954899648,185.2907283980642,50.062190030338904,306.02191372928246,0,,,,,,
46.99649948478616,1.4023722057838426,215.8082512630211,186.2520719545432,47.97392179306813,308.27352763190015,0,,,,,,
47.99649948478615,1.4236806337472783,216.08360297704573,187.2134155110222,45.885653555797354,310.52514153451784,0,,,,,,
48.996499484786135,1.4459813945723283,216.35895469107035,188.17475906750118,43.79738531852658,312.77675543713553,0,,,,,,
49.99649948478612,1.4693714285916015,216.63430640509497,189.13610262398018,41.709117081255805,315.0283693397532,0,,,,,,
50.996499484786106,1.4939626106638821,216.9096581191196,190.09744618045917,39.62084884398503,317.2799832423709,0,,,,,,
51.99649948478609,1.5198849839691149,217.18500983314422,191.05878973693817,37.532580606714255,319.5315971449886,0,,,,,,
52.99649948478608,1.5472909191690882,217.46036154716884,192.02013329341716,35.44431236944348,321.7832110476063,0,,,,,,
53.996499484786064,1.5763605359806376,217.73571326119347,192.98147684989615,33.356044132172705,324.034824950224,0,,,,,,
54.99649948478605,1.6073088766878576,218.0110649752181,193.94282040637515,31.26777589490193,326.2864388528417,0,,,,,,
55.996499484786035,1.6403955578827507,218.2864166892427,194.90416396285414,29.179507657631156,328.5380527554594,0,,,,,,
56.99649948478602,1.6759380040711398,218.56176840326734,195.86550751933314,27.09123942036038,330.78966665807707,0,,,,,,
57.99649948478601,1.7143299861519186,218.83712011729196,196.82685107581213,25.002971183089606,333.04128056069476,0,,,,,,
58.99649948478599,1.7560682390274558,219.11247183131658,197.78819463229112,22.91470294581883,335.29289446331245,0,,,,,,
59.99649948478598,1.8017917868648152,219.3878235453412,198.74953818877012,20.826434708548057,337.54450836593014,0,,,,,,
60.996499484785964,1.8523420247127782,219.66317525936583,199.7108817452491,18.73816647127728,339.79612226854783,0,,,,,,
61.99649948478595,1.9088582545958255,219.93852697339045,200.6722253017281,16.649898234006507,342.0477361711655,0,,,,,,
62.996499484785936,1.9729371418971542,220.21387868741508,201.6335688582071,14.561629996735734,344.2993500737832,0,,,,,,
63.99649948478592,2.046915340893322,220.4892304014397,202.5949124146861,12.47336175946496,346.5509639764009,0,,,,,,
64.99649948478591,2.128636847716,220.76458211546432,203.5562559711651,12.0,348.80257787901866,0,,,,,,
65.9964994847859,2.211970181049332,221.03993382948894,204.51759952764408,12.0,351.05419178163635,0,,,,,,
66.98776789717827,2.2945758820820297,221.42710317350907,205.43013060353022,12.0,353.28614552020485,0,,,,,,
67.98314469333877,2.377523948428738,221.97115072959235,206.26366957865648,12.0,355.5273497527829,0,,,,,,
68.97852148949926,2.460472014775445,222.757981779073,206.87331854807076,12.0,357.768553985361,0,,,,,,
69.97389828565977,2.626368147468864,223.70097715455546,207.1919636298678,0.0,0.00975821793912246,1,,,,,,
70.96927508182024,2.792264280162276,224.69632616588441,207.18452642735977,12.0,357.71717930999785,0,,,,,,
71.96465187798074,2.875212346508984,225.6344547149276,206.8518256732205,12.0,355.4246004020565,0,,,,,,
72.96002867414123,2.9581604128556913,226.41208788150772,206.23048709839247,12.0,353.13202149411524,0,,,,,,
73.96002867414123,3.041493746189025,226.57091015785167,205.24317990985543,12.0,350.8287942973546,0,,,,,,
74.96002867414123,3.123607602529662,226.72973243419563,204.25587272131838,12.356425201896489,348.52556710059395,0,,,,,,
75.96002867414123,3.197161325786341,226.88855471053958,203.26856553278134,14.834584463523758,346.2223399038333,0,,,,,,
76.96002867414123,3.2593748941507745,227.04737698688353,202.2812583442443,17.312743725151027,343.91911270707266,0,,,,,,
77.96002867414123,3.3132779515922137,227.2061992632275,201.29395115570725,19.790902986778296,341.615885510312,0,,,,,,
78.96002867414123,3.360829108347022,227.36502153957144,200.3066439671702,22.269062248405564,339.31265831355137,0,,,,,,
79.96002867414123,3.40336756183849,227.5238438159154,199.31933677863316,24.747221510032833,337.0094311167907,0,,,,,,
80.96002867414123,3.441849375567192,227.68266609225935,198.3320295900961,27.225380771660102,334.7062039200301,0,,,,,,
81.96002867414123,3.4769809040016146,227.8414883686033,197.34472240155907,29.70354003328737,332.40297672326943,0,,,,,,
82.96002867414123,3.509298788229115,228.00031064494726,196.35741521302202,32.18169929491464,330.0997495265088,0,,,,,,
83.96002867414123,3.5392202931175056,228.15913292129122,195.37010802448498,34.659858556541906,327.79652232974814,0,,,,,,
84.96002867414123,3.5670762702157983,228.31795519763517,194.38280083594793,37.138017818169175,325.4932951329875,0,,,,,,
85.96002867414123,3.5931334779379136,228.47677747397913,193.3954936474109,39.616177079796444,323.19006793622685,0,,,,,,
86.96002867414123,3.6176101323641308,228.63559975032308,192.40818645887384,42.09433634142371,320.8868407394662,0,,,,,,
87.96002867414123,3.640687011432254,228.79442202666704,191.4208792703368,44.57249560305098,318.58361354270556,0,,,,,,
88.96002867414123,3.6625155557443647,228.953244303011,190.43357208179975,47.05065486467825,316.2803863459449,0,,,,,,
89.96002867414123,3.6832238907652033,229.11206657935494,189.4462648932627,49.52881412630552,313.9771591491843,0,,,,,,
90.96002867414123,3.7029213791972455,229.2708888556989,188.45895770472566,52.00697338793279,311.67393195242363,0,,,,,,
91.96002867414123,3.7217021139804967,229.42971113204285,187.47165051618862,54.48513264956006,309.370704755663,0,,,,,,
92.96002867414123,3.7396476345913316,229.5885334083868,186.48434332765157,56.963291911187326,307.06747755890234,0,,,,,,
93.96002867414123,3.756829065064115,229.74735568473076,185.49703613911453,59.441451172814595,304.7642503621417,0,,,,,,
94.96002867414123,3.773308815434727,229.90617796107472,184.50972895057748,61.919610434441864,302.46102316538105,0,,,,,,
95.96002867414123,3.7891419493861562,230.06500023741867,183.52242176204044,64.39776969606913,300.1577959686204,0,,,,,,
96.96002867414123,3.804377293712631,230.22382251376263,182.5351145735034,66.8759289576964,297.85456877185976,0,,,,,,
97.96002867414123,3.819058345961205,230.38264479010658,181.54780738496635,69.35408821932367,295.5513415750991,0,,,,,,
98.96002867414123,3.8332240227604517,230.54146706645054,180.5605001964293,71.83224748095094,293.24811437833847,0,,,,,,
99.96002867414123,3.8469092812541215,230.7002893427945,179.57319300789226,74.31040674257821,290.9448871815778,0,,,,,,
100.96002867414123,3.860145638614086,230.85911161913845,178.5858858193552,76.78856600420548,288.6416599848172,0,,,,,,
101.96002867414123,3.8729616090545833,231.0179338954824,177.59857863081817,79.26672526583275,286.33843278805654,0,,,,,,
102.96002867414123,3.885383073584797,231.17675617182636,176.61127144228112,81.74488452746002,284.0352055912959,0,,,,,,
103.96002867414123,3.8974335945516274,231.3355784481703,175.62396425374408,84.22304378908728,281.73197839453525,0,,,,,,
104.96002867414123,3.9091346845782198,231.49440072451426,174.63665706520703,86.70120305071455,279.4287511977746,0,,,,,,
105.96002867414123,3.92050603760902,231.65322300085822,173.64934987667,89.17936231234182,277.12552400101396,0,,,,,,
106.96002867414123,3.931565728292793,231.81204527720217,172.66204268813294,91.65752157396909,274.8222968042533,0,,,,,,
108.04969715869893,3.94328162273536,232.45755382527477,171.7841496874754,94.35789362107911,272.31254271516707,0,,,,,,
109.04940783196339,3.953739217660109,232.71726858592248,170.81876392347192,96.83533588497707,270.00998190361247,0,,,,,,
110.04911850522784,3.9640164901095516,233.05643781489306,169.8783461097538,97.71252264118198,270.0098722509851,0,,,,,,
111.04911850522784,3.9742048480958165,233.55775728365344,169.0130838430151,98.58996326441805,270.00976256662307,0,,,,,,
112.04911850522784,3.9843029324476316,234.05907675241383,168.14782157627639,99.46740388765411,270.00965288226104,0,,,,,,
113.04911850522784,3.994312328848651,234.56039622117422,167.28255930953767,100.34484451089018,270.009543197899,0,,,,,,
114.04911850522784,4.0042345815667515,235.0617156899346,166.41729704279896,101.22228513412625,270.009433513537,0,,,,,,
115.04911850522784,4.014071194883877,235.563035158695,165.55203477606025,102.09972575736232,270.00932382917495,0,,,,,,
116.04911850522784,4.0238236344647085,236.06435462745537,164.68677250932154,102.97716638059839,270.0092141448129,0,,,,,,
117.04911850522784,4.033493328667265,236.56567409621576,163.82151024258283,103.85460700383446,270.0091044604509,0,,,,,,
118.04911850522784,4.043081669798384,237.06699356497614,162.95624797584412,104.73204762707053,270.00899477608885,0,,,,,,
119.04911850522784,4.052590015316817,237.56831303373653,162.0909857091054,105.6094882503066,270.0088850917268,0,,,,,,
120.04911850522784,4.062019688986561,238.06963250249692,161.2257234423667,106.48692887354267,270.0087754073648,0,,,,,,
121.04911850522784,4.071371981982868,238.5709519712573,160.360461175628,107.36436949677874,270.00866572300276,0,,,,,,
122.04911850522784,4.080648153953239,239.0722714400177,159.49519890888928,108.2418101200148,270.00855603864073,0,,,,,,
123.04911850522784,4.089849434035591,239.57359090877807,158.62993664215057,109.11925074325087,270.0084463542787,0,,,,,,
124.04911850522784,4.098977021835653,240.07491037753846,157.76467437541186,109.99669136648694,270.0083366699167,0,,,,,,
125.04911850522784,4.108032088365533,240.57622984629884,156.89941210867315,110.87413198972301,270.00822698555464,0,,,,,,
126.04911850522784,4.117015776945292,241.07754931505923,156.03414984193444,111.75157261295908,270.0081173011926,0,,,,,,
127.04911850522784,4.125929204069262,241.57886878381962,155.16888757519573,112.62901323619515,270.0080076168306,0,,,,,,
128.04911850522785,4.134773460238748,242.08018825258,154.30362530845701,113.50645385943123,270.00789793246855,0,,,,,,
129.04911850522785,4.143549610762673,242.5815077213404,153.4383630417183,114.3838944826673,270.0077882481065,0,,,,,,
130.04911850522785,4.152258696527629,243.08282719010077,152.5731007749796,115.26133510590337,270.0076785637445,0,,,,,,
131.04911850522785,4.1609017347387285,243.58414665886116,151.70783850824088,116.13877572913944,270.00756887938246,0,,,,,,
132.04911850522785,4.169479719632575,244.08546612762154,150.84257624150217,117.01621635237551,270.00745919502043,0,,,,,,
133.04911850522785,4.177993623163601,244.58678559638193,149.97731397476346,117.89365697561158,270.0073495106584,0,,,,,,
134.04911850522785,4.186444395664965,245.08810506514232,149.11205170802475,118.77109759884765,270.00723982629637,0,,,,,,
135.04911850522785,4.194832966485122,245.5894245339027,148.24678944128604,119.64853822208372,270.00713014193434,0,,,,,,
136.04911850522785,4.203160244601138,246.0907440026631,147.38152717454733,120.52597884531978,270.0070204575723,0,,,,,,
137.04911850522785,4.211427119209759,246.59206347142347,146.51626490780862,121.40341946855585,270.0069107732103,0,,,,,,
138.04911850522785,4.219634460297204,247.09338294018386,145.6510026410699,122.28086009179192,270.00680108884825,0,,,,,,
139.04911850522785,4.227783119188579,247.59470240894424,144.7857403743312,123.15830071502799,270.0066914044862,0,,,,,,
140.04911850522785,4.235873929077794,248.09602187770463,143.9204781075925,124.03574133826406,270.0065817201242,0,,,,,,
141.04911850522785,4.243907705538806,248.59734134646502,143.05521584085378,124.91318196150013,270.00647203576216,0,,,,,,
142.04911850522785,4.25188524701896,249.0986608152254,142.18995357411507,125.7906225847362,270.0063623514001,0,,,,,,
143.04911850522785,4.259807335315189,249.5999802839858,141.32469130737636,126.66806320797227,270.0062526670381,0,,,,,,
144.04911850522785,4.267674736033782,250.10129975274617,140.45942904063764,127.54550383120834,270.00614298267607,0,,,,,,
145.04911850522785,4.2754881990343785,250.60261922150656,139.59416677389893,128.4229444544444,270.00603329831404,0,,,,,,
146.04911850522785,4.283248458858861,251.10393869026694,138.72890450716022,129.3003850776805,270.005923613952,0,,,,,,
147.04911850522785,4.290956235145735,251.60525815902733,137.8636422404215,130.17782570091657,270.00581392959,0,,,,,,
148.04911850522785,4.298612233030598,252.10657762778771,136.9983799736828,131.05526632415265,270.00570424522795,0,,,,,,
149.04911850522785,4.306217143533235,252.6078970965481,136.1331177069441,131.93270694738874,270.0055945608659,0,,,,,,
150.04911850522785,4.3137716439319,253.1092165653085,135.26785544020538,132.81014757062482,270.0054848765039,0,,,,,,
151.04911850522785,4.321276398125262,253.61053603406887,134.40259317346667,133.6875881938609,270.00537519214186,0,,,,,,
152.04911850522785,4.328732056982519,254.11185550282926,133.53733090672796,134.565028817097,270.0052655077798,0,,,,,,
153.04911850522785,4.336139258682129,254.61317497158964,132.67206863998925,135.44246944033307,270.0051558234178,0,,,,,,
154.04911850522785,4.343498629039612,255.11449444035003,131.80680637325054,136.31991006356915,270.00504613905576,0,,,,,,
155.04911850522785,4.350810781824826,255.61581390911041,130.94154410651183,137.19735068680524,270.00493645469373,0,,,,,,
156.04911850522785,4.35807631906914,256.1171333778708,130.07628183977312,138.07479131004132,270.0048267703317,0,,,,,,
157.04911850522785,4.365295831362867,256.61845284663116,129.2110195730344,138.9522319332774,270.0047170859697,0,,,,,,
158.04911850522785,4.3724698981433505,257.1197723153915,128.3457573062957,139.8296725565135,270.00460740160764,0,,,,,,
159.04911850522785,4.379599087974021,257.6210917841519,127.48049503955698,140.70711317974957,270.0044977172456,0,,,,,,
160.04911850522785,4.386683958814797,258.12241125291223,126.61523277281827,141.58455380298565,270.0043880328836,0,,,,,,
161.04911850522785,4.393725058284121,258.6237307216726,125.74997050607956,142.46199442622174,270.00427834852155,0,,,,,,
162.04911850522785,4.400722923912957,259.12505019043294,124.88470823934085,143.33943504945782,270.0041686641595,0,,,,,,
163.04911850522785,4.407678083391033,259.6263696591933,124.01944597260214,144.2168756726939,270.0040589797975,0,,,,,,
164.04911850522785,4.414591054805623,260.12768912795366,123.15418370586343,145.09431629592999,270.00394929543546,0,,,,,,
165.04911850522785,4.421462346873119,260.629008596714,122.28892143912472,145.97175691916607,270.00383961107343,0,,,,,,
166.04911850522785,4.428292459163674,261.1303280654744,121.42365917238601,146.84919754240215,270.0037299267114,0,,,,,,
167.04911850522785,4.4350818823191505,261.63164753423473,120.5583969056473,147.72663816563824,270.00362024234937,0,,,,,,
