Distance (in),Time (s),X (in),Y (in),Velocity (in/s),Orientation (deg),Touch,Way X (in),Way Y (in),Way Velocity (in/s),Way Orientation (deg),Way Turn Radius (in),Touch this Point
0.0,0.0,180.0,165.0,0.0,270.0,0,180.0,165.0,0.0,270.0,3.0,0.0
0.9999999999999946,0.16666666666666577,180.98890840103263,165.1485266789741,12.0,270.0,0,211.16,169.68,48.0,270.0,12.0,0.0
1.9999999999999891,0.24999999999999867,181.97781680206526,165.2970533579482,12.0,270.0,0,225.0,235.0,0.0,0.0,3.0,1
2.9999999999999836,0.33333333333333154,182.9667252030979,165.44558003692228,12.0,270.0,0,243.88,147.27,120.0,0.0,3.0,0
3.9999999999999782,0.4166666666666644,183.95563360413053,165.59410671589637,12.0,270.0,0,249.86,124.49,108.0,0.0,3.0,0.0
4.9999999999999725,0.4999999999999973,184.94454200516316,165.74263339487047,12.0,270.0,0,254.0,105.0,102.0,0.0,20.0,0.0
5.999999999999967,0.5833333333333302,185.9334504061958,165.89116007384456,12.0,270.0,0,282.0,80.0,96.0,270.0,20.0,0.0
6.999999999999962,0.6666666666666631,186.92235880722842,166.03968675281865,12.0,270.0,0,300.0,107.26,96.0,0.0,15.0,0.0
7.9999999999999565,0.749336220425474,187.91126720826105,166.18821343179275,12.192703468982128,270.0,0,308.0,124.0,84.0,270.0,60.0,0
8.99999999999995,0.8265279993432959,188.90017560929368,166.33674011076684,13.716791402604892,270.0,0,307.28,145.0,72.0,0.0,3.0,0
9.999999999999945,0.8955943278487156,189.88908401032631,166.48526678974093,15.240879336227659,270.0,0,305.97,165.0,60.0,0.0,3.0,0
10.99999999999994,0.9580829107821907,190.87799241135895,166.63379346871503,16.764967269850423,270.0,0,306.39,182.0,36.0,0.0,3.0,0
11.999999999999934,1.0151377038953635,191.86690081239158,166.78232014768912,18.28905520347319,270.0,0,307.22,199.0,24.0,0.0,3.0,0
12.999999999999929,1.0676281135594825,192.8558092134242,166.9308468266632,19.813143137095956,270.0,0,314.0,235.0,0.0,270.0,3.0,1
13.999999999999924,1.116230344729963,193.84471761445684,167.0793735056373,21.337231070718722,270.0,0,320.0,200.0,48.0,0.0,5.0,0
14.999999999999918,1.1614806978886862,194.83362601548947,167.2279001846114,22.86131900434149,270.0,0,320.58,182.0,60.0,0.0,3.0,0
15.999999999999913,1.203811673424266,195.8225344165221,167.3764268635855,24.385406937964255,270.0,0,322.0,165.0,84.0,0.0,3.0,0
16.999999999999908,1.243577135291023,196.81144281755473,167.5249535425596,25.90949487158702,270.0,0,322.22,145.0,96.0,270.0,10.0,0
17.9999999999999,1.281070285051108,197.80035121858737,167.67348022153368,27.433582805209785,270.0,0,323.05,124.0,108.0,0.0,20.0,0
18.999999999999893,1.3165367780674044,198.78925961962,167.82200690050777,28.957670738832547,270.0,0,331.0,101.64,96.0,270.0,30.0,0.0
19.999999999999886,1.3501844765700448,199.77816802065263,167.97053357948187,30.48175867245531,270.0,0,360.14,94.0,96.0,0.0,20.0,0.0
20.99999999999988,1.3821908239262148,200.76707642168526,168.11906025845596,32.00584660607807,270.0,0,395.17,102.86,96.0,270.0,30.0,0.0
21.999999999999872,1.4127085039634932,201.7559848227179,168.26758693743005,33.52993453970084,270.0,0,398.48,128.1,66.0,0.0,3.0,0.0
22.999999999999865,1.4418698426657814,202.74489322375052,168.41611361640415,35.054022473323606,270.0,0,399.72,147.0,60.0,0.0,3.0,0.0
23.998510237602936,1.4697495622359498,203.72786092640416,168.59160489863197,36.57583987805326,270.0,0,399.31,165.6,48.0,0.0,3.0,0.0
24.998220910867385,1.4965244212700313,204.6943513490332,168.847178162502,38.0994868522895,270.0,0,400.98,186.44,24.0,0.0,3.0,0.0
25.997931584131855,1.5222495104276839,205.6362147133961,169.18231221494955,39.62313382652578,270.0,0,403.75,270.0,0.0,270.0,3.0,1.0
26.997642257396326,1.5470040413165087,206.54691408594627,169.59468108268283,41.14678080076206,270.0,0,410.0,170.0,60.0,270.0,40.0,0
27.997352930660774,1.5708585859918025,207.42012882453488,170.08142274984363,42.6704277749983,270.0,0,479.76,159.87,180.0,270.0,3.0,0.0
28.99706360392524,1.5938762892932306,208.2497984463637,170.63915902161847,44.194074749234574,270.0,0,563.79,153.56,0.0,0.0,3.0,0.0
29.99677427718968,1.616113875738696,209.03016469032113,171.2640189703515,45.7177217234708,270.0,0,,,,,,
30.996484950454157,1.6381780448818317,209.75581148177073,171.951665801434,44.90075267083836,271.6082869391799,0,,,,,,
31.99619562371859,1.6606473573029725,210.4217025224197,172.69732695250883,44.08378361820595,273.2165738783597,0,,,,,,
32.995906296983065,1.6835369698311238,211.0232162443776,173.4958272170894,43.26681456557351,274.8248608175396,0,,,,,,
33.99561697024751,1.706862906057494,211.55617788580895,174.34162466270016,42.449845512941096,276.4331477567195,0,,,,,,
34.99532764351198,1.730642123708952,212.01688846556138,175.22884909425233,41.63287646030866,278.0414346958994,0,,,,,,
35.995038316776444,1.7548925886973787,212.40215045567277,176.151342795702,40.81590740767622,279.6497216350793,0,,,,,,
36.99503831677645,1.7796405892971023,212.60942882263507,177.12962479931315,39.998701915646514,281.2584740293377,0,,,,,,
37.99503831677646,1.804899429789401,212.81670718959737,178.1079068029243,39.18149642361681,282.86722642359615,0,,,,,,
38.995038316776466,1.830690643834838,213.02398555655967,179.08618880653546,38.3642909315871,284.4759788178546,0,,,,,,
39.99503831677647,1.8570371559863454,213.23126392352196,180.06447081014662,37.54708543955739,286.084731212113,0,,,,,,
40.99503831677648,1.8839634041115518,213.43854229048426,181.04275281375777,36.729879947527685,287.69348360637144,0,,,,,,
41.99503831677649,1.911495475587231,213.64582065744656,182.02103481736893,35.91267445549798,289.3022360006299,0,,,,,,
42.995038316776494,1.9396612591678482,213.85309902440886,182.99931682098008,35.09546896346827,290.9109883948883,0,,,,,,
43.9950383167765,1.9684906147438452,214.06037739137116,183.97759882459124,34.278263471438564,292.51974078914674,0,,,,,,
44.99503831677651,1.9980155635795263,214.26765575833346,184.9558808282024,33.46105797940886,294.12849318340517,0,,,,,,
45.995038316776515,2.0282705020686245,214.47493412529576,185.93416283181355,32.64385248737915,295.7372455776636,0,,,,,,
46.99503831677652,2.0592924425847796,214.68221249225806,186.9124448354247,31.82664699534944,297.34599797192203,0,,,,,,
47.99503831677653,2.091121285655468,214.88949085922036,187.89072683903586,31.009441503319728,298.95475036618046,0,,,,,,
48.99503831677654,2.123800128478405,215.09676922618266,188.86900884264702,30.192236011290017,300.5635027604389,0,,,,,,
49.995038316776544,2.157375615763427,215.30404759314496,189.84729084625818,29.375030519260307,302.1722551546973,0,,,,,,
50.99503831677655,2.191898340064407,215.51132596010726,190.82557284986933,28.557825027230596,303.78100754895576,0,,,,,,
51.99503831677656,2.2274233002217367,215.71860432706956,191.8038548534805,27.740619535200885,305.3897599432142,0,,,,,,
52.995038316776565,2.2640104283401294,215.92588269403186,192.78213685709164,26.923414043171174,306.9985123374726,0,,,,,,
53.99503831677657,2.3017251979755917,216.13316106099415,193.7604188607028,26.106208551141464,308.60726473173105,0,,,,,,
54.99503831677658,2.340639329026684,216.34043942795645,194.73870086431396,25.289003059111753,310.2160171259895,0,,,,,,
55.995038316776586,2.3808316083877847,216.54771779491875,195.7169828679251,24.471797567082042,311.8247695202479,0,,,,,,
56.99503831677659,2.4223888499525876,216.75499616188105,196.69526487153627,23.65459207505233,313.43352191450634,0,,,,,,
57.9950383167766,2.4654070233607146,216.96227452884335,197.67354687514742,22.83738658302262,315.0422743087648,0,,,,,,
58.99503831677661,2.5099925883769503,217.16955289580565,198.65182887875858,22.02018109099291,316.6510267030232,0,,,,,,
59.995038316776615,2.5562640815570115,217.37683126276795,199.63011088236973,21.2029755989632,318.25977909728164,0,,,,,,
60.99503831677662,2.604354014688042,217.58410962973025,200.6083928859809,20.38577010693349,319.86853149154007,0,,,,,,
61.99503831677663,2.6544111615264026,217.79138799669255,201.58667488959205,19.568564614903778,321.4772838857985,0,,,,,,
62.995038316776636,2.7066033322020533,217.99866636365485,202.5649568932032,18.751359122874067,323.08603628005693,0,,,,,,
63.99503831677664,2.761120765648511,218.20594473061715,203.54323889681436,17.934153630844357,324.69478867431536,0,,,,,,
64.99503831677666,2.8181803129672565,218.41322309757945,204.52152090042551,17.116948138814642,326.3035410685738,0,,,,,,
65.99503831677667,2.878030643834306,218.62050146454175,205.49980290403667,16.299742646784928,327.9122934628322,0,,,,,,
66.99503831677669,2.9409587916100084,218.82777983150405,206.47808490764783,15.482537154755212,329.52104585709066,0,,,,,,
67.9950383167767,3.0072984726039884,219.03505819846634,207.45636691125898,14.665331662725496,331.1297982513491,0,,,,,,
68.99503831677671,3.0774407896699945,219.24233656542864,208.43464891487014,13.84812617069578,332.7385506456075,0,,,,,,
69.99503831677673,3.151848190021972,219.44961493239094,209.4129309184813,13.030920678666064,334.34730303986595,0,,,,,,
70.99503831677674,3.231072941397726,219.65689329935324,210.39121292209245,12.213715186636348,335.9560554341244,0,,,,,,
71.99503831677676,3.3136707577420697,219.86417166631554,211.3694949257036,12.0,337.5648078283828,0,,,,,,
72.99503831677677,3.397004091075404,220.07145003327784,212.34777692931476,12.0,339.17356022264124,0,,,,,,
73.99503831677679,3.4803374244087384,220.27872840024014,213.32605893292592,12.0,340.7823126168997,0,,,,,,
74.9950383167768,3.5636707577420728,220.48600676720244,214.30434093653707,12.0,342.3910650111581,0,,,,,,
75.99503831677681,3.647004091075407,220.69328513416474,215.28262294014823,12.0,343.99981740541654,0,,,,,,
76.99503831677683,3.7303374244087415,220.90056350112704,216.26090494375939,12.0,345.60856979967497,0,,,,,,
77.99503831677684,3.813670757742076,221.10784186808934,217.23918694737054,12.0,347.2173221939334,0,,,,,,
78.99503831677686,3.8970040910754102,221.31512023505164,218.2174689509817,12.0,348.82607458819183,0,,,,,,
79.99503831677687,3.9803374244087446,221.52239860201394,219.19575095459285,12.0,350.43482698245026,0,,,,,,
80.99503831677688,4.063670757742079,221.72967696897624,220.174032958204,12.0,352.0435793767087,0,,,,,,
81.9950383167769,4.147004091075414,221.93695533593853,221.15231496181516,12.0,353.6523317709671,0,,,,,,
82.95895044999132,4.227330102176616,222.36088640988382,222.01799911039453,12.0,355.20302772313056,0,,,,,,
83.9543272461518,4.310278168523323,222.96007052416786,222.81282825148358,12.0,356.804342527143,0,,,,,,
84.9497040423123,4.393226234870031,223.7863375949054,223.3678577048908,12.0,358.40565733115545,0,,,,,,
85.9450808384728,4.559122367563448,224.7487270966305,223.62198643861464,0.0,0.006972135167927718,1,,,,,,
86.94045763463329,4.725018500256862,225.74129331532393,223.5472384095884,12.0,0.006884609463440938,0,,,,,,
87.93583443079378,4.807966566603569,226.6547684996623,223.15184233736122,12.0,0.006797083758954159,0,,,,,,
88.93121122695429,4.890914632950278,227.38859172242223,222.47932583639414,12.0,0.006709558054467379,0,,,,,,
89.93121122695429,4.974247966283611,227.598980680855,221.50170807562586,12.0,0.006621625821310317,0,,,,,,
90.93121122695429,5.0575812996169445,227.80936963928775,220.52409031485757,12.0,0.006533693588153255,0,,,,,,
91.93121122695429,5.1409146329502775,228.0197585977205,219.5464725540893,12.0,0.006445761354996193,0,,,,,,
92.93121122695429,5.2242479662836105,228.23014755615327,218.568854793321,12.0,0.006357829121839131,0,,,,,,
93.93121122695429,5.307581299616944,228.44053651458603,217.59123703255273,12.0,0.006269896888682069,0,,,,,,
94.93121122695429,5.390914632950277,228.6509254730188,216.61361927178444,12.0,0.006181964655525007,0,,,,,,
95.93121122695429,5.47424796628361,228.86131443145155,215.63600151101616,12.0,0.006094032422367945,0,,,,,,
96.93121122695429,5.557581299616943,229.0717033898843,214.65838375024788,12.0,0.006006100189210883,0,,,,,,
97.93121122695429,5.640914632950276,229.28209234831706,213.6807659894796,12.0,0.005918167956053821,0,,,,,,
98.93121122695429,5.72296668695148,229.49248130674982,212.7031482287113,12.374770678752903,0.005830235722896759,0,,,,,,
99.93121122695429,5.800780239846065,229.70287026518258,211.72553046794303,13.327692781685824,0.005742303489739697,0,,,,,,
100.93121122695429,5.873222202757141,229.91325922361534,210.74791270717475,14.280614884618746,0.005654371256582635,0,,,,,,
101.93121122695429,5.94098630482798,230.1236481820481,209.77029494640647,15.233536987551668,0.005566439023425573,0,,,,,,
102.93121122695429,6.00464003651632,230.33403714048086,208.79267718563818,16.18645909048459,0.005478506790268511,0,,,,,,
103.93121122695429,6.0646535270378505,230.54442609891362,207.8150594248699,17.139381193417513,0.005390574557111449,0,,,,,,
104.93121122695429,6.121420611239596,230.75481505734638,206.83744166410162,18.092303296350437,0.005302642323954387,0,,,,,,
105.93121122695429,6.175274490866087,230.96520401577914,205.85982390333334,19.04522539928336,0.005214710090797325,0,,,,,,
106.93121122695429,6.2264995734183985,231.1755929742119,204.88220614256505,19.998147502216284,0.005126777857640263,0,,,,,,
107.93121122695429,6.275340556012917,231.38598193264465,203.90458838179677,20.951069605149208,0.005038845624483201,0,,,,,,
108.93121122695429,6.322009489359712,231.5963708910774,202.9269706210285,21.90399170808213,0.004950913391326139,0,,,,,,
109.93121122695429,6.366691337879213,231.80675984951017,201.9493528602602,22.856913811015055,0.004862981158169077,0,,,,,,
110.93121122695429,6.409548404458464,232.01714880794293,200.97173509949192,23.80983591394798,0.004775048925012015,0,,,,,,
111.93121122695429,6.450723887135962,232.2275377663757,199.99411733872364,24.762758016880902,0.004687116691854953,0,,,,,,
112.93121122695429,6.490344764362472,232.43792672480845,199.01649957795536,25.715680119813825,0.004599184458697891,0,,,,,,
113.93121122695429,6.528524155404259,232.6483156832412,198.03888181718708,26.66860222274675,0.004511252225540829,0,,,,,,
114.93121122695429,6.56536326643886,232.85870464167397,197.0612640564188,27.621524325679673,0.004423319992383767,0,,,,,,
115.93121122695429,6.600953006648966,233.06909360010673,196.0836462956505,28.574446428612596,0.004335387759226705,0,,,,,,
116.93121122695429,6.635375339262353,233.27948255853948,195.10602853488223,29.52736853154552,0.004247455526069643,0,,,,,,
117.93121122695429,6.668704418046556,233.48987151697224,194.12841077411395,30.480290634478443,0.004159523292912581,0,,,,,,
118.93121122695429,6.7010075488835685,233.700260475405,193.15079301334566,31.433212737411367,0.004071591059755519,0,,,,,,
119.93121122695429,6.732346007766484,233.91064943383776,192.17317525257738,32.38613484034429,0.003983658826598457,0,,,,,,
120.93121122695429,6.762775740198218,234.12103839227052,191.1955574918091,33.339056943277214,0.0038957265934413954,0,,,,,,
121.93121122695429,6.792347962044869,234.33142735070328,190.21793973104081,34.29197904621014,0.0038077943602843334,0,,,,,,
122.93121122695429,6.8211096780491145,234.54181630913604,189.24032197027253,35.24490114914306,0.0037198621271272714,0,,,,,,
123.93121122695429,6.8491041311829015,234.7522052675688,188.26270420950425,36.197823252075985,0.0036319298939702094,0,,,,,,
124.93121122695429,6.87637119362162,234.96259422600156,187.28508644873597,37.15074535500891,0.0035439976608131474,0,,,,,,
125.93121122695429,6.902947708210487,235.17298318443432,186.30746868796768,38.10366745794183,0.0034560654276560854,0,,,,,,
126.93121122695429,6.928867787760148,235.38337214286707,185.3298509271994,39.056589560874755,0.0033681331944990234,0,,,,,,
127.93121122695429,6.9541630782705095,235.59376110129983,184.35223316643112,40.00951166380768,0.0032802009613419614,0,,,,,,
128.9312112269543,6.978862991176955,235.8041500597326,183.37461540566284,40.96243376674062,0.0031922687281848994,0,,,,,,
129.9312112269543,7.0029949088930765,236.01453901816535,182.39699764489455,41.91535586967354,0.0031043364950278374,0,,,,,,
130.9312112269543,7.0265843672515205,236.2249279765981,181.41937988412627,42.868277972606464,0.0030164042618707754,0,,,,,,
131.9312112269543,7.049655217890271,236.43531693503087,180.441762123358,43.82120007553939,0.0029284720287137134,0,,,,,,
132.9312112269543,7.072229773172838,236.64570589346363,179.4641443625897,44.77412217847231,0.0028405397955566514,0,,,,,,
133.9312112269543,7.094328935849229,236.8560948518964,178.48652660182142,45.727044281405234,0.0027526075623995894,0,,,,,,
134.9312112269543,7.115972315345991,237.06648381032915,177.50890884105314,46.67996638433816,0.0026646753292425274,0,,,,,,
135.9312112269543,7.137178332306486,237.2768727687619,176.53129108028486,47.63288848727108,0.0025767430960854654,0,,,,,,
136.9312112269543,7.157964312777803,237.48726172719466,175.55367331951658,48.585810590204005,0.0024888108629284034,0,,,,,,
137.9312112269543,7.1783465732508525,237.69765068562742,174.5760555587483,49.53873269313693,0.0024008786297713414,0,,,,,,
138.9312112269543,7.198340497599249,237.90803964406018,173.59843779798,50.49165479606985,0.0023129463966142794,0,,,,,,
139.9312112269543,7.217960606825796,238.11842860249294,172.62082003721173,51.444576899002776,0.0022250141634572174,0,,,,,,
140.9312112269543,7.237220622408573,238.3288175609257,171.64320227644345,52.3974990019357,0.0021370819303001554,0,,,,,,
141.9312112269543,7.256133523938741,238.53920651935846,170.66558451567516,53.35042110486862,0.0020491496971430934,0,,,,,,
142.9312112269543,7.2747116016564055,238.74959547779122,169.68796675490688,54.30334320780155,0.0019612174639860314,0,,,,,,
143.9312112269543,7.292966504417048,238.95998443622398,168.7103489941386,55.25626531073447,0.0018732852308289694,0,,,,,,
144.9312112269543,7.310909283557281,239.17037339465674,167.73273123337032,56.209187413667394,0.0017853529976719074,0,,,,,,
145.9312112269543,7.3285504330735485,239.3807623530895,166.75511347260203,57.16210951660032,0.0016974207645148454,0,,,,,,
146.9312112269543,7.345899926479515,239.59115131152225,165.77749571183375,58.11503161953324,0.0016094885313577834,0,,,,,,
147.9312112269543,7.362967250666238,239.801540269955,164.79987795106547,59.067953722466164,0.0015215562982007214,0,,,,,,
148.9312112269543,7.379761437052932,240.01192922838777,163.8222601902972,60.02087582539909,0.0014336240650436594,0,,,,,,
149.9312112269543,7.396291090284369,240.22231818682053,162.8446424295289,60.97379792833201,0.0013456918318865974,0,,,,,,
150.9312112269543,7.412564414703209,240.4327071452533,161.86702466876062,61.926720031264935,0.0012577595987295354,0,,,,,,
151.9312112269543,7.4285892388011066,240.64309610368605,160.88940690799234,62.87964213419786,0.0011698273655724734,0,,,,,,
152.9312112269543,7.444373037831005,240.8534850621188,159.91178914722406,63.83256423713078,0.0010818951324154114,0,,,,,,
153.9312112269543,7.459922954744102,241.06387402055157,158.93417138645577,64.7854863400637,0.0009939628992583494,0,,,,,,
154.9312112269543,7.475245819598267,241.27426297898432,157.9565536256875,65.73840844299662,0.0009060306661012874,0,,,,,,
155.9312112269543,7.490348167569874,241.48465193741708,156.9789358649192,66.69133054592953,0.0008180984329442254,0,,,,,,
156.9312112269543,7.505236255687971,241.69504089584984,156.00131810415093,67.64425264886245,0.0007301661997871634,0,,,,,,
157.9312112269543,7.519916078397979,241.9054298542826,155.02370034338264,68.59717475179536,0.0006422339666301013,0,,,,,,
158.9312112269543,7.53439338205184,242.11581881271536,154.04608258261436,69.55009685472828,0.0005543017334730393,0,,,,,,
159.9312112269543,7.548673678412252,242.32620777114812,153.06846482184608,70.5030189576612,0.00046636950031597735,0,,,,,,
160.9312112269543,7.562762257250409,242.53659672958088,152.0908470610778,71.45594106059411,0.00037843726715891535,0,,,,,,
161.9312112269543,7.576664198109302,242.74698568801364,151.1132293003095,72.40886316352703,0.00029050503400185335,0,,,,,,
162.9312112269543,7.590384381298037,242.9573746464464,150.13561153954123,73.36178526645995,0.00020257280084479135,0,,,,,,
163.9312112269543,7.603927498176711,243.16776360487916,149.15799377877295,74.31470736939286,0.00011464056768772934,0,,,,,,
164.9312112269543,7.617298060786094,243.37815256331191,148.18037601800467,75.26762947232578,2.6708334530667344e-05,0,,,,,,
