Distance (in),Time (s),X (in),Y (in),Velocity (in/s),Orientation (deg),Touch,Way X (in),Way Y (in),Way Velocity (in/s),Way Orientation (deg),Way Turn Radius (in),Touch this Point
0.0,0.0,180.0,165.0,12.0,270.0,0,180.0,165.0,12.0,270.0,3.0,0
0.9999999999999946,0.07874877274578176,180.98890840103263,165.1485266789741,13.397221191705752,270.0,0,211.16,169.68,60.0,270.0,12.0,0
1.9999999999999891,0.14969173056985444,181.97781680206526,165.2970533579482,14.794442383411504,270.0,0,225.0,218.0,24.0,0.0,3.0,1
2.9999999999999836,0.21423678836694426,182.9667252030979,165.44558003692228,16.191663575117257,270.0,0,232.67,170.32,60.0,270.0,12.0,0
3.9999999999999782,0.2734424584394128,183.95563360413053,165.59410671589637,17.58888476682301,270.0,0,285.0,80.0,180.0,270.0,15.0,0
4.9999999999999725,0.3281246322509757,184.94454200516316,165.74263339487047,18.986105958528764,270.0,0,310.0,140.0,180.0,270.0,20.0,0
5.999999999999967,0.3789254653357378,185.9334504061958,165.89116007384456,20.383327150234518,270.0,0,312.0,270.0,24.0,270.0,3.0,1
6.999999999999962,0.4263594352128941,186.92235880722842,166.03968675281865,21.78054834194027,270.0,0,322.22,142.4,180.0,270.0,10.0,0
7.9999999999999565,0.47084508535520175,187.91126720826105,166.18821343179275,23.177769533646025,270.0,0,332.03,101.64,180.0,270.0,20.0,0
8.99999999999995,0.5127274810356303,188.90017560929368,166.33674011076684,24.574990725351775,270.0,0,395.17,102.86,180.0,270.0,15.0,0
9.999999999999945,0.5522944579492445,189.88908401032631,166.48526678974093,25.97221191705753,270.0,0,403.75,270.0,24.0,270.0,3.0,1
10.99999999999994,0.5897886147011006,190.87799241135895,166.63379346871503,27.369433108763282,270.0,0,408.04,173.67,180.0,270.0,10.0,0
11.999999999999934,0.6254163203767736,191.86690081239158,166.78232014768912,28.766654300469035,270.0,0,479.76,159.87,180.0,270.0,3.0,0
12.999999999999929,0.659354586451036,192.8558092134242,166.9308468266632,30.16387549217479,270.0,0,,,,,,
13.999999999999924,0.6917563831548964,193.84471761445684,167.0793735056373,31.561096683880542,270.0,0,,,,,,
14.999999999999918,0.7227548045394645,194.83362601548947,167.2279001846114,32.958317875586296,270.0,0,,,,,,
15.999999999999913,0.7524663690052648,195.8225344165221,167.3764268635855,34.35553906729205,270.0,0,,,,,,
16.999999999999908,0.7809936620535788,196.81144281755473,167.5249535425596,35.7527602589978,270.0,0,,,,,,
17.9999999999999,0.8084274725399386,197.80035121858737,167.67348022153368,37.14998145070355,270.0,0,,,,,,
18.999999999999893,0.834848534617226,198.78925961962,167.82200690050777,38.5472026424093,270.0,0,,,,,,
19.999999999999886,0.8603289595973116,199.77816802065263,167.97053357948187,39.94442383411506,270.0,0,,,,,,
20.99999999999988,0.8849334216908862,200.76707642168526,168.11906025845596,41.34164502582081,270.0,0,,,,,,
21.999999999999872,0.9087201467050996,201.7559848227179,168.26758693743005,42.738866217526564,270.0,0,,,,,,
22.999999999999865,0.9317417417276719,202.74489322375052,168.41611361640415,44.13608740923232,270.0,0,,,,,,
23.99997140561282,0.9540452676941542,203.7335104313006,168.56637614992275,45.533268648254534,270.0,0,,,,,,
24.999682078877278,0.9756692003653863,204.71169976194557,168.77269402033448,46.93008558651407,270.0,0,,,,,,
25.999392752141734,0.9966589606567049,205.66932130367587,169.05971738707132,48.3269025247736,270.0,0,,,,,,
26.999103425406204,1.0170506859307942,206.59972875447164,169.42545418552427,49.72371946303315,270.0,0,,,,,,
27.998814098670668,1.0368775102688994,207.49646468971355,169.8673660462892,51.12053640129269,270.0,0,,,,,,
28.99852477193511,1.0561698882932744,208.35330537946447,170.3823859125332,52.5173533395522,270.0,0,,,,,,
29.998235445199555,1.074955876490879,209.16430398381027,170.96693932667773,53.91417027781172,270.0,0,,,,,,
30.99794611846404,1.0932613785602256,209.92383182646572,171.61696923865878,55.31098721607129,270.0,0,,,,,,
31.99765679172848,1.1114614621052668,210.62661746018898,172.32796416358514,54.54682423741838,272.1965027038005,0,,,,,,
32.99736746499294,1.1299183147098086,211.26778325287452,173.0949894933682,53.78266125876545,274.393005407601,0,,,,,,
33.9970781382574,1.148639285110894,211.8428792404005,173.91272174500708,53.018498280112524,276.58950811140147,0,,,,,,
34.99678881152187,1.1676320421072148,212.3479140112781,174.7754855078318,52.25433530145959,278.78601081520196,0,,,,,,
35.99649948478632,1.1869045934192346,212.77938240875025,175.67729283327427,51.49017232280667,280.98251351900245,0,,,,,,
36.996499484786305,1.2064710093685376,213.05473412277487,176.63863638975326,50.72578818738715,283.17965191368216,0,,,,,,
37.99649948478629,1.226334508941011,213.3300858367995,177.59997994623225,49.961404051967634,285.3767903083619,0,,,,,,
38.99649948478628,1.2465042526698442,213.60543755082412,178.56132350271125,49.197019916548115,287.5739287030416,0,,,,,,
39.99649948478626,1.2669898314185108,213.88078926484874,179.52266705919024,48.432635781128596,289.7710670977213,0,,,,,,
40.99649948478625,1.2878012937634615,214.15614097887337,180.48401061566923,47.66825164570908,291.968205492401,0,,,,,,
41.996499484786234,1.308949175590038,214.431492692898,181.44535417214823,46.90386751028956,294.1653438870807,0,,,,,,
42.99649948478622,1.330444532119797,214.7068444069226,182.40669772862722,46.13948337487004,296.36248228176044,0,,,,,,
43.996499484786206,1.3522989726129453,214.98219612094724,183.36804128510622,45.37509923945052,298.55962067644015,0,,,,,,
44.99649948478619,1.3745246980185726,215.25754783497186,184.3293848415852,44.610715104031,300.75675907111986,0,,,,,,
45.99649948478618,1.3971345418783543,215.53289954899648,185.2907283980642,43.84633096861148,302.95389746579957,0,,,,,,
46.99649948478616,1.42014201482703,215.8082512630211,186.2520719545432,43.081946833191964,305.1510358604793,0,,,,,,
47.99649948478615,1.4435613530759788,216.08360297704573,187.2134155110222,42.317562697772445,307.348174255159,0,,,,,,
48.996499484786135,1.4674075713155073,216.35895469107035,188.17475906750118,41.553178562352926,309.5453126498387,0,,,,,,
49.99649948478612,1.4916965205280819,216.63430640509497,189.13610262398018,40.78879442693341,311.7424510445184,0,,,,,,
50.996499484786106,1.5164449512699136,216.9096581191196,190.09744618045917,40.02441029151389,313.93958943919813,0,,,,,,
51.99649948478609,1.5416705830535435,217.18500983314422,191.05878973693817,39.26002615609437,316.13672783387784,0,,,,,,
52.99649948478608,1.5673921805511457,217.46036154716884,192.02013329341716,38.49564202067485,318.33386622855755,0,,,,,,
53.996499484786064,1.5936296374393062,217.73571326119347,192.98147684989615,37.73125788525533,320.53100462323727,0,,,,,,
54.99649948478605,1.6204040688236172,218.0110649752181,193.94282040637515,36.96687374983581,322.728143017917,0,,,,,,
55.996499484786035,1.6477379133186631,218.2864166892427,194.90416396285414,36.202489614416294,324.9252814125967,0,,,,,,
56.99649948478602,1.6756550460196429,218.56176840326734,195.86550751933314,35.438105478996775,327.1224198072764,0,,,,,,
57.99649948478601,1.7041809037905606,218.83712011729196,196.82685107581213,34.673721343577256,329.3195582019561,0,,,,,,
58.99649948478599,1.7333426245162598,219.11247183131658,197.78819463229112,33.90933720815774,331.5166965966358,0,,,,,,
59.99649948478598,1.763169202228466,219.3878235453412,198.74953818877012,33.14495307273822,333.71383499131554,0,,,,,,
60.996499484785964,1.7936916603279682,219.66317525936583,199.7108817452491,32.3805689373187,335.91097338599525,0,,,,,,
61.99649948478595,1.8249432454966446,219.93852697339045,200.6722253017281,31.616184801899184,338.10811178067496,0,,,,,,
62.996499484785936,1.8569596453373656,220.21387868741508,201.6335688582071,30.85180066647967,340.3052501753547,0,,,,,,
63.99649948478592,1.889779233313312,220.4892304014397,202.5949124146861,30.087416531060153,342.5023885700344,0,,,,,,
64.99649948478591,1.9234433452015682,220.76458211546432,203.5562559711651,29.32303239564063,344.69952696471415,0,,,,,,
65.9964994847859,1.957996592055112,221.03993382948894,204.51759952764408,28.558648260221116,346.89666535939386,0,,,,,,
66.98776789717827,1.993173159908959,221.42710317350907,205.43013060353022,27.800938411845884,349.0746192476944,0,,,,,,
67.98314469333877,2.0294736035008283,221.97115072959235,206.26366957865648,27.04008818009608,351.26159982371195,0,,,,,,
68.97852148949926,2.0668100392150643,222.757981779073,206.87331854807076,26.27923794834629,353.4485803997295,0,,,,,,
69.97389828565977,2.1052433373974635,223.70097715455546,207.1919636298678,25.518387716596475,355.6355609757471,1,,,,,,
70.96927508182024,2.1448398954785826,224.69632616588441,207.18452642735977,24.757537484846694,357.82254155176463,0,,,,,,
71.96465187798074,2.185672328011792,225.6344547149276,206.8518256732205,23.99668725309689,0.009522127782190637,0,,,,,,
72.96002867414123,2.2263936070854013,226.41208788150772,206.23048709839247,24.890617802385318,357.77466495998453,0,,,,,,
73.96002867414123,2.265857437146793,226.57091015785167,205.24317990985543,25.788700370450627,355.5294276022138,0,,,,,,
74.96002867414123,2.303970473442702,226.72973243419563,204.25587272131838,26.686782938515936,353.28419024444304,0,,,,,,
75.96002867414123,2.340822127249077,226.88855471053958,203.26856553278134,27.584865506581245,351.0389528866723,0,,,,,,
76.96002867414123,2.3764932168146173,227.04737698688353,202.2812583442443,28.482948074646554,348.79371552890154,0,,,,,,
77.96002867414123,2.4110570343109767,227.2061992632275,201.29395115570725,29.381030642711863,346.5484781711308,0,,,,,,
78.96002867414123,2.444580252171656,227.36502153957144,200.3066439671702,30.279113210777172,344.30324081336005,0,,,,,,
79.96002867414123,2.4771236969844224,227.5238438159154,199.31933677863316,31.17719577884248,342.0580034555893,0,,,,,,
80.96002867414123,2.5087430135035493,227.68266609225935,198.3320295900961,32.07527834690779,339.81276609781855,0,,,,,,
81.96002867414123,2.5394892369863826,227.8414883686033,197.34472240155907,32.97336091497309,337.5675287400478,0,,,,,,
82.96002867414123,2.5694092886345477,228.00031064494726,196.35741521302202,33.8714434830384,335.32229138227706,0,,,,,,
83.96002867414123,2.5985464062127774,228.15913292129122,195.37010802448498,34.7695260511037,333.0770540245063,0,,,,,,
84.96002867414123,2.6269405197632834,228.31795519763517,194.38280083594793,35.66760861916901,330.83181666673556,0,,,,,,
85.96002867414123,2.6546285806072474,228.47677747397913,193.3954936474109,36.565691187234314,328.5865793089648,0,,,,,,
86.96002867414123,2.681644850433762,228.63559975032308,192.40818645887384,37.46377375529962,326.34134195119407,0,,,,,,
87.96002867414123,2.708021156148929,228.79442202666704,191.4208792703368,38.361856323364925,324.0961045934233,0,,,,,,
88.96002867414123,2.7337871152389703,228.953244303011,190.43357208179975,39.25993889143023,321.8508672356526,0,,,,,,
89.96002867414123,2.7589703356485926,229.11206657935494,189.4462648932627,40.15802145949554,319.6056298778818,0,,,,,,
90.96002867414123,2.7835965935563842,229.2708888556989,188.45895770472566,41.05610402756084,317.3603925201111,0,,,,,,
91.96002867414123,2.80768999191682,229.42971113204285,187.47165051618862,41.95418659562615,315.11515516234033,0,,,,,,
92.96002867414123,2.831273102212999,229.5885334083868,186.48434332765157,42.85226916369145,312.8699178045696,0,,,,,,
93.96002867414123,2.8543670915094026,229.74735568473076,185.49703613911453,43.75035173175676,310.62468044679883,0,,,,,,
94.96002867414123,2.8769918365968015,229.90617796107472,184.50972895057748,44.648434299822064,308.3794430890281,0,,,,,,
95.96002867414123,2.899166026771606,230.06500023741867,183.52242176204044,45.54651686788737,306.13420573125734,0,,,,,,
96.96002867414123,2.920907256581169,230.22382251376263,182.5351145735034,46.444599435952675,303.8889683734866,0,,,,,,
97.96002867414123,2.9422321096880384,230.38264479010658,181.54780738496635,47.34268200401798,301.64373101571584,0,,,,,,
98.96002867414123,2.9631562348544986,230.54146706645054,180.5605001964293,48.240764572083286,299.3984936579451,0,,,,,,
99.96002867414123,2.9836944149194413,230.7002893427945,179.57319300789226,49.13884714014859,297.15325630017435,0,,,,,,
100.96002867414123,3.0038606295290626,230.85911161913845,178.5858858193552,50.0369297082139,294.9080189424036,0,,,,,,
101.96002867414123,3.023668112288057,231.0179338954824,177.59857863081817,50.9350122762792,292.66278158463285,0,,,,,,
102.96002867414123,3.043129402916408,231.17675617182636,176.61127144228112,51.83309484434451,290.4175442268621,0,,,,,,
103.96002867414123,3.0622563949265382,231.3355784481703,175.62396425374408,52.731177412409814,288.17230686909136,0,,,,,,
104.96002867414123,3.0810603792747053,231.49440072451426,174.63665706520703,53.62925998047512,285.9270695113206,0,,,,,,
105.96002867414123,3.0995520843877933,231.65322300085822,173.64934987667,54.527342548540425,283.68183215354986,0,,,,,,
106.96002867414123,3.1177417129207545,231.81204527720217,172.66204268813294,55.42542511660573,281.4365947957791,0,,,,,,
108.04969715869893,3.1372297523006654,232.45755382527477,171.7841496874754,56.404037387557146,278.99003040666474,0,,,,,,
109.04940783196339,3.1548139004444384,232.71726858592248,170.81876392347192,57.30186011632479,276.74544265608927,0,,,,,,
110.04911850522784,3.1721246765194975,233.05643781489306,169.8783461097538,58.19968284509242,274.5008549055138,0,,,,,,
111.04911850522784,3.189175345819623,233.55775728365344,169.0130838430151,59.097765413157724,272.25561754774304,0,,,,,,
112.04911850522784,3.2059688576041463,234.05907675241383,168.14782157627639,59.99584798122303,270.0103801899723,0,,,,,,
113.04911850522784,3.222559280185165,234.56039622117422,167.28255930953767,60.555632261855436,270.0102673679186,0,,,,,,
114.04911850522784,3.2389970443012297,235.0617156899346,166.41729704279896,61.11541654248784,270.01015454586485,0,,,,,,
115.04911850522784,3.255284933741878,235.563035158695,165.55203477606025,61.67520082312025,270.0100417238111,0,,,,,,
116.04911850522784,3.2714256568393347,236.06435462745537,164.68677250932154,62.234985103752656,270.0099289017574,0,,,,,,
117.04911850522784,3.287421849171215,236.56567409621576,163.82151024258283,62.79476938438506,270.0098160797037,0,,,,,,
118.04911850522784,3.303276076143299,237.06699356497614,162.95624797584412,63.35455366501747,270.00970325764996,0,,,,,,
119.04911850522784,3.318990835458704,237.56831303373653,162.0909857091054,63.914337945649876,270.00959043559624,0,,,,,,
120.04911850522784,3.334568559479396,238.06963250249692,161.2257234423667,64.47412222628228,270.0094776135425,0,,,,,,
121.04911850522784,3.350011617485632,238.5709519712573,160.360461175628,65.03390650691468,270.0093647914888,0,,,,,,
122.04911850522784,3.365322317838572,239.0722714400177,159.49519890888928,65.59369078754708,270.00925196943507,0,,,,,,
123.04911850522784,3.3805029100510082,239.57359090877807,158.62993664215057,66.15347506817947,270.00913914738135,0,,,,,,
124.04911850522784,3.3955555867708496,240.07491037753846,157.76467437541186,66.71325934881187,270.0090263253276,0,,,,,,
125.04911850522784,3.410482485681737,240.57622984629884,156.89941210867315,67.27304362944427,270.0089135032739,0,,,,,,
126.04911850522784,3.4252856913249126,241.07754931505923,156.03414984193444,67.83282791007667,270.0088006812202,0,,,,,,
127.04911850522784,3.439967236846221,241.57886878381962,155.16888757519573,68.39261219070907,270.00868785916646,0,,,,,,
128.04911850522785,3.454529105671911,242.08018825258,154.30362530845701,68.95239647134149,270.00857503711273,0,,,,,,
129.04911850522785,3.468973233116683,242.5815077213404,153.4383630417183,69.51218075197389,270.008462215059,0,,,,,,
130.04911850522785,3.483301507927252,243.08282719010077,152.5731007749796,70.07196503260629,270.0083493930053,0,,,,,,
131.04911850522785,3.4975157737644995,243.58414665886116,151.70783850824088,70.63174931323869,270.00823657095157,0,,,,,,
132.04911850522785,3.511617830627123,244.08546612762154,150.84257624150217,71.19153359387109,270.00812374889784,0,,,,,,
133.04911850522785,3.525609436219533,244.58678559638193,149.97731397476346,71.75131787450348,270.0080109268441,0,,,,,,
134.04911850522785,3.539492307266601,245.08810506514232,149.11205170802475,72.31110215513588,270.0078981047904,0,,,,,,
135.04911850522785,3.5532681207777084,245.5894245339027,148.24678944128604,72.87088643576828,270.0077852827367,0,,,,,,
136.04911850522785,3.5669385152624353,246.0907440026631,147.38152717454733,73.43067071640068,270.00767246068295,0,,,,,,
137.04911850522785,3.580505091900086,246.59206347142347,146.51626490780862,73.99045499703308,270.00755963862923,0,,,,,,
138.04911850522785,3.593969415665137,247.09338294018386,145.6510026410699,74.55023927766548,270.0074468165755,0,,,,,,
139.04911850522785,3.6073330164105943,247.59470240894424,144.7857403743312,75.11002355829788,270.0073339945218,0,,,,,,
140.04911850522785,3.6205973899111257,248.09602187770463,143.9204781075925,75.66980783893028,270.00722117246806,0,,,,,,
141.04911850522785,3.6337639988677544,248.59734134646502,143.05521584085378,76.22959211956268,270.00710835041434,0,,,,,,
142.04911850522785,3.6468342738757955,249.0986608152254,142.18995357411507,76.78937640019508,270.0069955283606,0,,,,,,
143.04911850522785,3.659809614357642,249.5999802839858,141.32469130737636,77.34916068082748,270.0068827063069,0,,,,,,
144.04911850522785,3.672691389461919,250.10129975274617,140.45942904063764,77.90894496145988,270.0067698842532,0,,,,,,
145.04911850522785,3.685480938930449,250.60261922150656,139.59416677389893,78.46872924209228,270.00665706219945,0,,,,,,
146.04911850522785,3.698179573934406,251.10393869026694,138.72890450716022,79.02851352272468,270.00654424014573,0,,,,,,
147.04911850522785,3.7107885778809577,251.60525815902733,137.8636422404215,79.58829780335708,270.006431418092,0,,,,,,
148.04911850522785,3.723309207191641,252.10657762778771,136.9983799736828,80.14808208398948,270.0063185960383,0,,,,,,
149.04911850522785,3.7357426920536505,252.6078970965481,136.1331177069441,80.70786636462188,270.00620577398456,0,,,,,,
150.04911850522785,3.74809023714516,253.1092165653085,135.26785544020538,81.26765064525428,270.00609295193084,0,,,,,,
151.04911850522785,3.7603530223357513,253.61053603406887,134.40259317346667,81.82743492588668,270.0059801298771,0,,,,,,
152.04911850522785,3.772532203362966,254.11185550282926,133.53733090672796,82.38721920651908,270.0058673078234,0,,,,,,
153.04911850522785,3.78462891248595,254.61317497158964,132.67206863998925,82.94700348715148,270.00575448576967,0,,,,,,
154.04911850522785,3.7966442591171172,255.11449444035003,131.80680637325054,83.50678776778388,270.00564166371595,0,,,,,,
155.04911850522785,3.808579330432711,255.61581390911041,130.94154410651183,84.06657204841628,270.0055288416622,0,,,,,,
156.04911850522785,3.8204351919631057,256.1171333778708,130.07628183977312,84.62635632904868,270.0054160196085,0,,,,,,
157.04911850522785,3.8322128881636486,256.61845284663116,129.2110195730344,85.18614060968108,270.0053031975548,0,,,,,,
158.04911850522785,3.8439134429668083,257.1197723153915,128.3457573062957,85.74592489031347,270.00519037550106,0,,,,,,
159.04911850522785,3.8555378603163577,257.6210917841519,127.48049503955698,86.30570917094587,270.00507755344734,0,,,,,,
160.04911850522785,3.8670871246842884,258.12241125291223,126.61523277281827,86.86549345157827,270.0049647313936,0,,,,,,
161.04911850522785,3.8785622015711247,258.6237307216726,125.74997050607956,87.42527773221067,270.0048519093399,0,,,,,,
162.04911850522785,3.8899640379902714,259.12505019043294,124.88470823934085,87.98506201284307,270.00473908728617,0,,,,,,
163.04911850522785,3.901293562936999,259.6263696591933,124.01944597260214,88.54484629347547,270.00462626523245,0,,,,,,
164.04911850522785,3.9125516878426567,260.12768912795366,123.15418370586343,89.10463057410787,270.0045134431787,0,,,,,,
165.04911850522785,3.923739307014657,260.629008596714,122.28892143912472,89.66441485474027,270.004400621125,0,,,,,,
166.04911850522785,3.9348572980627727,261.1303280654744,121.42365917238601,90.22419913537267,270.0042877990713,0,,,,,,
