Distance (in),Time (s),X (in),Y (in),Velocity (in/s),Orientation (deg),Touch,Way X (in),Way Y (in),Way Velocity (in/s),Way Orientation (deg),Way Turn Radius (in),Touch this Point
0.0,0.0,150.0,90.0,0.0,90.0,0,150.0,90.0,0.0,90.0,3.0,0.0
0.9999999999999952,0.16666666666666588,150.99574402750542,89.90783801387086,12.0,88.73171578721359,0,220.66,83.46,144.0,0.0,3.0,0
1.9999999999999905,0.24999999999999883,151.99148805501085,89.81567602774172,12.0,87.46343157442718,0,330.0,73.0,144.0,110.0,3.0,0.0
2.999999999999986,0.33333333333333176,152.98723208251627,89.72351404161257,12.0,86.19514736164076,0,317.0,101.17,60.0,110.0,3.0,0.0
3.999999999999981,0.4166666666666647,153.9829761100217,89.63135205548343,12.0,84.92686314885435,0,317.0,120.0,60.0,110.0,3.0,0.0
4.999999999999976,0.4999999999999976,154.97872013752712,89.53919006935429,12.0,83.65857893606794,0,283.57,120.0,60.0,110.0,3.0,0.0
5.999999999999972,0.5833333333333306,155.97446416503254,89.44702808322515,12.0,82.39029472328153,0,223.0,140.0,96.0,90.0,15.0,0
6.999999999999967,0.6666666666666635,156.97020819253797,89.35486609709601,12.0,81.12201051049512,0,223.0,212.0,60.0,90.0,15.0,0.0
7.999999999999963,0.7499999999999964,157.9659522200434,89.26270411096687,12.0,79.8537262977087,0,293.95,245.3,96.0,300.0,15.0,0.0
8.999999999999957,0.8305779951957908,158.96169624754882,89.17054212483772,12.820672134374187,78.58544208492229,0,335.0,198.0,60.0,300.0,10.0,0.0
9.999999999999952,0.904471813797749,159.95744027505424,89.07838013870858,14.245191260415762,77.31715787213588,0,367.85,201.33,60.0,300.0,10.0,0.0
10.999999999999947,0.9713281258661874,160.95318430255966,88.98621815257944,15.669710386457337,76.04887365934947,0,441.13,123.77,144.0,300.0,3.0,0.0
11.999999999999941,1.0323708455808487,161.9489283300651,88.8940561664503,17.094229512498913,74.78058944656306,0,470.0,87.12,144.0,300.0,3.0,0.0
12.999999999999936,1.088530147718337,162.9446723575705,88.80189418032116,18.518748638540487,73.51230523377664,0,509.54,66.97,0.0,300.0,3.0,0.0
13.99999999999993,1.1405295015493446,163.94041638507593,88.70973219419201,19.94326776458206,72.24402102099023,0,,,,,,
14.999999999999925,1.1889426930471794,164.93616041258136,88.61757020806287,21.367786890623634,70.97573680820382,0,,,,,,
15.99999999999992,1.2342324528354764,165.93190444008678,88.52540822193373,22.792306016665208,69.70745259541741,0,,,,,,
16.999999999999915,1.27677737869721,166.9276484675922,88.43324623580459,24.21682514270678,68.439168382631,0,,,,,,
17.99999999999991,1.3168911659382732,167.92339249509763,88.34108424967545,25.64134426874836,67.17088416984458,0,,,,,,
18.999999999999908,1.354836640355495,168.91913652260305,88.2489222635463,27.065863394789936,65.90259995705817,0,,,,,,
19.999999999999904,1.390836193007731,169.91488055010848,88.15676027741716,28.490382520831513,64.63431574427176,0,,,,,,
20.9999999999999,1.4250796699208337,170.9106245776139,88.06459829128802,29.91490164687309,63.36603153148534,0,,,,,,
21.999999999999897,1.4577304269775129,171.90636860511933,87.97243630515888,31.339420772914668,62.09774731869892,0,,,,,,
22.999999999999893,1.4889300392761176,172.90211263262475,87.88027431902974,32.763939898956245,60.8294631059125,0,,,,,,
23.99999999999989,1.518802008498186,173.89785666013017,87.7881123329006,34.188459024997826,59.56117889312608,0,,,,,,
24.999999999999886,1.5474547136703738,174.8936006876356,87.69595034677145,35.61297815103941,58.292894680339664,0,,,,,,
25.999999999999883,1.5749837833456133,175.88934471514102,87.60378836064231,37.03749727708099,57.024610467553245,0,,,,,,
26.99999999999988,1.6014740202029192,176.88508874264645,87.51162637451317,38.46201640312257,55.756326254766826,0,,,,,,
27.999999999999876,1.6270009757199593,177.88083277015187,87.41946438838403,39.88653552916415,54.48804204198041,0,,,,,,
28.999999999999872,1.6516322485872788,178.8765767976573,87.32730240225489,41.31105465520573,53.21975782919399,0,,,,,,
29.99999999999987,1.6754285630523162,179.87232082516272,87.23514041612574,42.73557378124731,51.95147361640757,0,,,,,,
30.999999999999865,1.698444670485713,180.86806485266814,87.1429784299966,44.16009290728889,50.68318940362115,0,,,,,,
31.99999999999986,1.720730107841859,181.86380888017356,87.05081644386746,45.58461203333047,49.41490519083473,0,,,,,,
32.99999999999986,1.7423298394332007,182.859552907679,86.95865445773832,47.00913115937205,48.14662097804831,0,,,,,,
33.99999999999985,1.763284802917338,183.8552969351844,86.86649247160918,48.43365028541363,46.8783367652619,0,,,,,,
34.999999999999844,1.7836323761555584,184.85104096268984,86.77433048548004,49.8581694114552,45.61005255247549,0,,,,,,
35.99999999999984,1.8034067783166456,185.84678499019526,86.6821684993509,51.282688537496774,44.341768339689075,0,,,,,,
36.99999999999983,1.8226394160349635,186.84252901770068,86.59000651322175,52.70720766353835,43.07348412690266,0,,,,,,
37.99999999999982,1.8413591834141263,187.8382730452061,86.49784452709261,54.13172678957992,41.80519991411625,0,,,,,,
38.999999999999815,1.859592723069155,188.83401707271153,86.40568254096347,55.556245915621496,40.53691570132984,0,,,,,,
39.99999999999981,1.877364654125322,189.82976110021696,86.31352055483433,56.98076504166307,39.26863148854343,0,,,,,,
40.9999999999998,1.894697772068991,190.82550512772238,86.22135856870518,58.40528416770464,38.000347275757015,0,,,,,,
41.999999999999794,1.9116132245200417,191.8212491552278,86.12919658257604,59.82980329374622,36.7320630629706,0,,,,,,
42.99999999999979,1.9281306663251851,192.81699318273323,86.0370345964469,61.25432241978779,35.46377885018419,0,,,,,,
43.99999999999978,1.9442683968244634,193.81273721023865,85.94487261031776,62.678841545829364,34.19549463739778,0,,,,,,
44.99999999999977,1.9600434816945442,194.80848123774408,85.85271062418862,64.10336067187093,32.92721042461137,0,,,,,,
45.999999999999766,1.9754718614026454,195.8042252652495,85.76054863805948,65.5278797979125,31.658926211824955,0,,,,,,
46.99999999999976,1.9905684479987444,196.79996929275492,85.66838665193033,66.95239892395408,30.390641999038543,0,,,,,,
47.99999999999975,2.005347211719136,197.79571332026035,85.57622466580119,68.37691804999565,29.12235778625213,0,,,,,,
48.999999999999744,2.0198212586617874,198.79145734776577,85.48406267967205,69.80143717603723,27.85407357346572,0,,,,,,
49.99999999999974,2.0340029006156986,199.7872013752712,85.39190069354291,71.2259563020788,26.585789360679307,0,,,,,,
50.99999999999973,2.047903717976463,200.78294540277662,85.29973870741377,72.65047542812037,25.317505147892895,0,,,,,,
51.99999999999972,2.0615346165535233,201.77868943028204,85.20757672128462,74.07499455416195,24.049220935106483,0,,,,,,
52.999999999999716,2.074905878967211,202.77443345778747,85.11541473515548,75.49951368020352,22.78093672232007,0,,,,,,
53.99999999999971,2.088027211242325,203.7701774852929,85.02325274902634,76.9240328062451,21.51265250953366,0,,,,,,
54.9999999999997,2.10090778512707,204.76592151279831,84.9310907628972,78.34855193228667,20.244368296747247,0,,,,,,
55.999999999999694,2.113556276599477,205.76166554030374,84.83892877676806,79.77307105832824,18.976084083960835,0,,,,,,
56.99999999999969,2.125980900966178,206.75740956780916,84.74676679063892,81.19759018436982,17.707799871174423,0,,,,,,
57.99999999999968,2.13818944490911,207.7531535953146,84.65460480450977,82.62210931041139,16.43951565838801,0,,,,,,
58.99999999999967,2.1501892957931887,208.74889762282,84.56244281838063,84.04662843645296,15.171231445601597,0,,,,,,
59.999999999999666,2.1619874685111484,209.74464165032543,84.47028083225149,85.47114756249454,13.902947232815183,0,,,,,,
60.99999999999966,2.173590630109803,210.74038567783086,84.37811884612235,86.89566668853611,12.63466302002877,0,,,,,,
61.99999999999965,2.18500512241417,211.73612970533628,84.2859568599932,88.32018581457768,11.366378807242356,0,,,,,,
62.999999999999645,2.196236982841668,212.7318737328417,84.19379487386406,89.74470494061926,10.098094594455942,0,,,,,,
63.99999999999964,2.207291963577394,213.72761776034713,84.10163288773492,91.16922406666083,8.829810381669528,0,,,,,,
64.99999999999963,2.218175549262954,214.72336178785255,84.00947090160578,92.5937431927024,7.561526168883115,0,,,,,,
65.99999999999963,2.2288929733349936,215.71910581535798,83.91730891547664,94.018262318744,6.2932419560966935,0,,,,,,
66.99999999999963,2.2394492331352733,216.7148498428634,83.8251469293475,95.44278144478558,5.024957743310271,0,,,,,,
67.99999999999963,2.2498491039014747,217.71059387036883,83.73298494321836,96.86730057082717,3.7566735305238486,0,,,,,,
68.99999999999963,2.2600971517367827,218.70633789787425,83.64082295708921,98.29181969686876,2.4883893177374263,0,,,,,,
69.99999999999963,2.270197745646403,219.70208192537967,83.54866097096007,99.71633882291034,1.220105104951004,0,,,,,,
70.96201237281814,2.2798194687426805,220.66,83.46,100.25041623589244,2.189213699571798,0,,,,,,
71.96201237281815,2.2897669460942236,221.65545528407304,83.36476987130598,100.80558312155044,3.196590134639375,0,,,,,,
72.96201237281817,2.299659790115519,222.6509105681461,83.26953974261197,101.36075000720844,4.203966569706951,0,,,,,,
73.96201237281818,2.3094985976407485,223.64636585221913,83.17430961391796,101.91591689286643,5.211343004774528,0,,,,,,
74.9620123728182,2.319283955777177,224.64182113629218,83.07907948522394,102.47108377852443,6.218719439842104,0,,,,,,
75.96201237281821,2.3290164421153765,225.63727642036523,82.98384935652993,103.02625066418243,7.226095874909681,0,,,,,,
76.96201237281822,2.3386966249338004,226.63273170443827,82.88861922783592,103.58141754984042,8.233472309977257,0,,,,,,
77.96201237281824,2.3483250633978927,227.62818698851132,82.7933890991419,104.13658443549842,9.240848745044834,0,,,,,,
78.96201237281825,2.357902307753901,228.62364227258436,82.69815897044789,104.69175132115642,10.248225180112412,0,,,,,,
79.96201237281826,2.3674288995175665,229.6190975566574,82.60292884175388,105.24691820681441,11.25560161517999,0,,,,,,
80.96201237281828,2.3769053716578488,230.61455284073045,82.50769871305987,105.80208509247241,12.262978050247566,0,,,,,,
81.9620123728183,2.3863322487758447,231.6100081248035,82.41246858436585,106.3572519781304,13.270354485315144,0,,,,,,
82.96201237281831,2.395710047279048,232.60546340887655,82.31723845567184,106.9124188637884,14.277730920382721,0,,,,,,
83.96201237281832,2.4050392755510983,233.6009186929496,82.22200832697783,107.4675857494464,15.285107355450299,0,,,,,,
84.96201237281834,2.4143204341171542,234.59637397702264,82.12677819828382,108.0227526351044,16.292483790517874,0,,,,,,
85.96201237281835,2.4235540158050304,235.59182926109568,82.0315480695898,108.57791952076239,17.29986022558545,0,,,,,,
86.96201237281836,2.4327405059022236,236.58728454516873,81.93631794089579,109.13308640642039,18.30723666065303,0,,,,,,
87.96201237281838,2.4418803823089568,237.58273982924177,81.84108781220178,109.68825329207839,19.314613095720606,0,,,,,,
88.96201237281839,2.450974115687358,238.57819511331482,81.74585768350777,110.24342017773638,20.321989530788183,0,,,,,,
89.9620123728184,2.460022169606893,239.57365039738787,81.65062755481375,110.79858706339438,21.32936596585576,0,,,,,,
90.96201237281842,2.4690250006861656,240.5691056814609,81.55539742611974,111.35375394905238,22.336742400923338,0,,,,,,
91.96201237281844,2.4779830587311884,241.56456096553396,81.46016729742573,111.90892083471037,23.344118835990916,0,,,,,,
92.96201237281845,2.4868967868702354,242.560016249607,81.36493716873171,112.46408772036837,24.351495271058493,0,,,,,,
93.96201237281846,2.495766621685372,243.55547153368005,81.2697070400377,113.01925460602637,25.35887170612607,0,,,,,,
94.96201237281848,2.504592993340765,244.5509268177531,81.17447691134369,113.57442149168436,26.366248141193648,0,,,,,,
95.96201237281849,2.5133763257078603,245.54638210182614,81.07924678264968,114.12958837734236,27.373624576261225,0,,,,,,
96.9620123728185,2.522117036487529,246.54183738589919,80.98401665395566,114.68475526300035,28.381001011328802,0,,,,,,
97.96201237281852,2.5308155373292602,247.53729266997223,80.88878652526165,115.23992214865835,29.38837744639638,0,,,,,,
98.96201237281853,2.539472233947489,248.53274795404528,80.79355639656764,115.79508903431635,30.395753881463957,0,,,,,,
99.96201237281855,2.5480875262351455,249.52820323811832,80.69832626787363,116.35025591997434,31.403130316531534,0,,,,,,
100.96201237281856,2.5566618083745003,250.52365852219137,80.60309613917961,116.90542280563234,32.41050675159911,0,,,,,,
101.96201237281858,2.565195468945383,251.51911380626441,80.5078660104856,117.46058969129034,33.417883186666685,0,,,,,,
102.96201237281859,2.5736888910308515,252.51456909033746,80.41263588179159,118.01575657694833,34.42525962173426,0,,,,,,
103.9620123728186,2.582142452320378,253.5100243744105,80.31740575309757,118.57092346260633,35.43263605680184,0,,,,,,
104.96201237281862,2.590556525210631,254.50547965848355,80.22217562440356,119.12609034826433,36.44001249186942,0,,,,,,
105.96201237281863,2.598931476903906,255.5009349425566,80.12694549570955,119.68125723392232,37.447388926936995,0,,,,,,
106.96201237281862,2.6072676695042882,256.4963902266296,80.03171536701554,120.2364241195803,38.454765362004544,0,,,,,,
107.96201237281863,2.615565460111593,257.49184551070266,79.93648523832152,120.7915910052383,39.46214179707212,0,,,,,,
108.96201237281865,2.623825200913154,258.4873007947757,79.84125510962751,121.3467578908963,40.4695182321397,0,,,,,,
109.96201237281866,2.6320472392735192,259.48275607884875,79.7460249809335,121.9019247765543,41.476894667207276,0,,,,,,
110.96201237281868,2.6402319178221054,260.4782113629218,79.65079485223949,122.45709166221229,42.48427110227485,0,,,,,,
111.96201237281869,2.648379574538874,261.47366664699484,79.55556472354547,123.01225854787029,43.49164753734243,0,,,,,,
112.9620123728187,2.6564905428380747,262.4691219310679,79.46033459485146,123.56742543352829,44.49902397241001,0,,,,,,
113.96201237281872,2.664565151650113,263.46457721514093,79.36510446615745,124.12259231918628,45.506400407477585,0,,,,,,
114.96201237281873,2.6726037255015926,264.460032499214,79.26987433746343,124.67775920484428,46.51377684254516,0,,,,,,
115.96201237281875,2.6806065845935776,265.455487783287,79.17464420876942,125.23292609050227,47.52115327761274,0,,,,,,
116.96201237281876,2.688574044878124,266.4509430673601,79.07941408007541,125.78809297616027,48.52852971268032,0,,,,,,
117.96201237281878,2.696506418133128,267.4463983514331,78.9841839513814,126.34325986181827,49.535906147747895,0,,,,,,
118.96201237281879,2.704404012035532,268.44185363550616,78.88895382268738,126.89842674747626,50.54328258281547,0,,,,,,
119.9620123728188,2.7122671302329313,269.4373089195792,78.79372369399337,127.45359363313426,51.55065901788305,0,,,,,,
120.96201237281882,2.720096072413628,270.43276420365225,78.69849356529936,128.00876051879226,52.55803545295063,0,,,,,,
121.96201237281883,2.7278911343751657,271.4282194877253,78.60326343660535,128.56392740445025,53.565411888018204,0,,,,,,
122.96201237281885,2.735652608091392,272.42367477179835,78.50803330791133,129.11909429010825,54.57278832308578,0,,,,,,
123.96201237281886,2.7433807817780758,273.4191300558714,78.41280317921732,129.67426117576625,55.58016475815336,0,,,,,,
124.96201237281888,2.7510759399571305,274.41458533994444,78.31757305052331,130.22942806142424,56.587541193220936,0,,,,,,
125.96201237281889,2.758738363519465,275.4100406240175,78.2223429218293,130.78459494708224,57.59491762828851,0,,,,,,
126.9620123728189,2.7663683297865065,276.40549590809053,78.12711279313528,131.33976183274024,58.60229406335609,0,,,,,,
127.96201237281892,2.773966112570427,277.4009511921636,78.03188266444127,131.89492871839823,59.60967049842367,0,,,,,,
128.96201237281892,2.781531982233101,278.3964064762366,77.93665253574726,132.45009560405623,60.61704693349123,0,,,,,,
129.96201237281892,2.789066205743833,279.39186176030967,77.84142240705324,133.00526248971423,61.624423368558794,0,,,,,,
130.96201237281892,2.796569046735885,280.3873170443827,77.74619227835923,133.56042937537222,62.63179980362636,0,,,,,,
131.96201237281892,2.804040765561824,281.38277232845576,77.65096214966522,134.11559626103022,63.63917623869392,0,,,,,,
132.96201237281892,2.811481619347734,282.3782276125288,77.5557320209712,134.67076314668822,64.64655267376148,0,,,,,,
133.96201237281892,2.818891862046311,283.37368289660185,77.4605018922772,135.2259300323462,65.65392910882903,0,,,,,,
134.96201237281892,2.8262717444888663,284.3691381806749,77.36527176358318,135.7810969180042,66.66130554389659,0,,,,,,
135.96201237281892,2.833621514436274,285.36459346474794,77.27004163488917,136.3362638036622,67.66868197896414,0,,,,,,
136.96201237281892,2.8409414166288807,286.360048748821,77.17481150619516,136.8914306893202,68.6760584140317,0,,,,,,
137.96201237281892,2.848231692835405,287.35550403289403,77.07958137750114,137.4465975749782,69.68343484909926,0,,,,,,
138.96201237281892,2.8554925819008528,288.3509593169671,76.98435124880713,138.0017644606362,70.69081128416681,0,,,,,,
139.96201237281892,2.862724319793471,289.3464146010401,76.88912112011312,138.5569313462942,71.69818771923437,0,,,,,,
140.96201237281892,2.8699271396507586,290.34186988511317,76.7938909914191,139.1120982319522,72.70556415430192,0,,,,,,
141.96201237281892,2.8771012718245674,291.3373251691862,76.69866086272509,139.66726511761019,73.71294058936948,0,,,,,,
142.96201237281892,2.884246943925303,292.33278045325926,76.60343073403108,140.22243200326818,74.72031702443704,0,,,,,,
143.96201237281892,2.8913643808652556,293.3282357373323,76.50820060533707,140.77759888892618,75.7276934595046,0,,,,,,
144.96201237281892,2.8984538049010777,294.32369102140535,76.41297047664305,141.33276577458417,76.73506989457215,0,,,,,,
145.96201237281892,2.9055154356754267,295.3191463054784,76.31774034794904,141.88793266024217,77.7424463296397,0,,,,,,
146.96201237281892,2.912549490257798,296.31460158955144,76.22251021925503,142.44309954590017,78.74982276470726,0,,,,,,
147.96201237281892,2.919556183184562,297.3100568736245,76.12728009056102,142.99826643155816,79.75719919977482,0,,,,,,
148.96201237281892,2.9265357264982237,298.30551215769754,76.032049961867,143.55343331721616,80.76457563484237,0,,,,,,
149.96201237281892,2.93349095557314,299.3009674417706,75.93681983317299,144.0,81.77195206990993,0,,,,,,
150.96201237281892,2.9404354000175847,300.2964227258436,75.84158970447898,144.0,82.77932850497749,0,,,,,,
151.96201237281892,2.9473798444620294,301.2918780099167,75.74635957578496,144.0,83.78670494004504,0,,,,,,
152.96201237281892,2.954324288906474,302.2873332939897,75.65112944709095,144.0,84.7940813751126,0,,,,,,
153.96201237281892,2.9612687333509187,303.28278857806276,75.55589931839694,144.0,85.80145781018015,0,,,,,,
154.96201237281892,2.9682131777953633,304.2782438621358,75.46066918970293,144.0,86.80883424524771,0,,,,,,
155.96201237281892,2.975157622239808,305.27369914620886,75.36543906100891,144.0,87.81621068031527,0,,,,,,
156.96201237281892,2.9821020666842526,306.2691544302819,75.2702089323149,144.0,88.82358711538282,0,,,,,,
157.96201237281892,2.9890465111286972,307.26460971435495,75.17497880362089,144.0,89.83096355045038,0,,,,,,
158.96201237281892,2.995990955573142,308.260064998428,75.07974867492688,144.0,90.83833998551793,0,,,,,,
159.96201237281892,3.0029354000175865,309.25552028250104,74.98451854623286,144.0,91.84571642058549,0,,,,,,
160.96201237281892,3.009879844462031,310.2509755665741,74.88928841753885,144.0,92.85309285565305,0,,,,,,
161.96201237281892,3.016824288906476,311.24643085064713,74.79405828884484,144.0,93.8604692907206,0,,,,,,
162.96201237281892,3.0237687333509204,312.2418861347202,74.69882816015082,144.0,94.86784572578816,0,,,,,,
163.96201237281892,3.030713177795365,313.2373414187932,74.60359803145681,144.0,95.87522216085571,0,,,,,,
164.96201237281892,3.0376576222398097,314.23279670286627,74.5083679027628,144.0,96.88259859592327,0,,,,,,
165.96201237281892,3.0446020666842544,315.2282519869393,74.41313777406879,144.0,97.88997503099083,0,,,,,,
166.96201237281892,3.051546511128699,316.22370727101236,74.31790764537477,144.0,98.89735146605838,0,,,,,,
