Distance (in),Time (s),X (in),Y (in),Velocity (in/s),Orientation (deg),Touch,Way X (in),Way Y (in),Way Velocity (in/s),Way Orientation (deg),Way Turn Radius (in),Touch this Point
0.0,0.0,149.0,162.0,0.0,0.0,0,149.0,162.0,0.0,0.0,3.0,0.0
1.000000000000006,0.16666666666666766,149.91770050022276,162.39727294381936,12.0,0.0,0,232.16,198.0,60.0,0.0,12.0,0.0
2.000000000000012,0.2500000000000015,150.83540100044553,162.79454588763872,12.0,0.0,0,240.0,130.79,60.0,0.0,3.0,0
3.0000000000000178,0.3333333333333353,151.7531015006683,163.19181883145808,12.0,0.0,0,287.99,121.46,60.0,0.0,5.0,0
4.000000000000024,0.4166666666666692,152.67080200089106,163.58909177527744,12.0,0.0,0,290.0,180.69,60.0,0.0,3.0,0
5.00000000000003,0.500000000000003,153.58850250111382,163.9863647190968,12.0,0.0,0,351.63,205.0,60.0,0.0,10.0,0
6.000000000000036,0.5833333333333368,154.5062030013366,164.38363766291616,12.0,0.0,0,406.49,215.0,60.0,0.0,3.0,0
7.000000000000043,0.6666666666666706,155.42390350155935,164.78091060673552,12.0,0.0,0,485.0,225.0,0.0,0.0,3.0,0
8.000000000000048,0.7500000000000044,156.34160400178212,165.17818355055488,12.0,0.0,0,,,,,,
9.000000000000053,0.8333333333333383,157.25930450200488,165.57545649437424,12.0,0.0,0,,,,,,
10.000000000000059,0.9166666666666721,158.17700500222765,165.9727294381936,12.0,0.0,0,,,,,,
11.000000000000064,1.0000000000000058,159.0947055024504,166.37000238201296,12.0,0.0,0,,,,,,
12.00000000000007,1.0833333333333395,160.01240600267317,166.76727532583232,12.0,0.0,0,,,,,,
13.000000000000075,1.1666666666666732,160.93010650289594,167.16454826965168,12.0,0.0,0,,,,,,
14.00000000000008,1.2500000000000069,161.8478070031187,167.56182121347103,12.0,0.0,0,,,,,,
15.000000000000085,1.3333333333333406,162.76550750334147,167.9590941572904,12.0,0.0,0,,,,,,
16.000000000000092,1.4166666666666745,163.68320800356423,168.35636710110975,12.0,0.0,0,,,,,,
17.0000000000001,1.5000000000000084,164.600908503787,168.7536400449291,12.0,0.0,0,,,,,,
18.000000000000107,1.5814376396054075,165.51860900400976,169.15091298874847,12.558668567641291,0.0,0,,,,,,
19.000000000000114,1.6589118533512774,166.43630950423253,169.54818593256783,13.256372376954698,0.0,0,,,,,,
20.00000000000012,1.7324130304947951,167.3540100044553,169.9454588763872,13.954076186268104,0.0,0,,,,,,
21.000000000000128,1.8023287843630191,168.27171050467805,170.34273182020655,14.65177999558151,0.0,0,,,,,,
22.000000000000135,1.8689926427024885,169.18941100490082,170.7400047640259,15.349483804894916,0.0,0,,,,,,
23.000000000000142,1.9326936628935372,170.10711150512358,171.13727770784527,16.047187614208323,0.0,0,,,,,,
24.00000000000015,1.9936840013743284,171.02481200534635,171.53455065166463,16.74489142352173,0.0,0,,,,,,
25.000000000000156,2.052184938284475,171.9425125055691,171.931823595484,17.442595232835135,0.0,0,,,,,,
26.000000000000163,2.1083917208059884,172.86021300579188,172.32909653930335,18.14029904214854,0.0,0,,,,,,
27.00000000000017,2.1624774926663126,173.77791350601464,172.7263694831227,18.838002851461948,0.0,0,,,,,,
28.000000000000178,2.2145965091862614,174.6956140062374,173.12364242694207,19.535706660775354,0.0,0,,,,,,
29.000000000000185,2.2648867882844574,175.61331450646017,173.52091537076143,20.23341047008876,0.0,0,,,,,,
30.000000000000192,2.313472312158986,176.53101500668294,173.9181883145808,20.931114279402166,0.0,0,,,,,,
31.0000000000002,2.360464868037629,177.4487155069057,174.31546125840015,21.628818088715573,0.0,0,,,,,,
32.000000000000206,2.4059655967455207,178.36641600712846,174.7127342022195,22.32652189802898,0.0,0,,,,,,
33.00000000000021,2.4500663030316314,179.28411650735123,175.11000714603887,23.024225707342385,0.0,0,,,,,,
34.00000000000022,2.492850570324127,180.201817007574,175.50728008985823,23.72192951665579,0.0,0,,,,,,
35.00000000000023,2.5343947139269845,181.11951750779676,175.9045530336776,24.419633325969198,0.0,0,,,,,,
36.000000000000234,2.5747685999635643,182.03721800801952,176.30182597749695,25.117337135282604,0.0,0,,,,,,
37.00000000000024,2.6140363521361287,182.9549185082423,176.6990989213163,25.81504094459601,0.0,0,,,,,,
38.00000000000025,2.652256964250758,183.87261900846505,177.09637186513567,26.512744753909416,0.0,0,,,,,,
39.000000000000256,2.6894848331935783,184.79031950868782,177.49364480895503,27.210448563222823,0.0,0,,,,,,
40.00000000000026,2.725770224441644,185.70802000891058,177.89091775277439,27.90815237253623,0.0,0,,,,,,
41.00000000000027,2.761159680103338,186.62572050913334,178.28819069659374,28.605856181849635,0.0,0,,,,,,
42.00000000000028,2.7956963777972796,187.5434210093561,178.6854636404131,29.30355999116304,0.0,0,,,,,,
43.000000000000284,2.829420447310188,188.46112150957887,179.08273658423246,30.001263800476448,0.0,0,,,,,,
44.00000000000029,2.8623692508572818,189.37882200980164,179.48000952805182,30.698967609789854,0.0,0,,,,,,
45.0000000000003,2.894577631852756,190.2965225100244,179.87728247187118,31.39667141910326,0.0,0,,,,,,
46.000000000000306,2.9260781363428348,191.21422301024717,180.27455541569054,32.094375228416666,0.0,0,,,,,,
47.00000000000031,2.956901210628826,192.13192351046993,180.6718283595099,32.79207903773007,0.0,0,,,,,,
48.00000000000032,2.9870753780877437,193.0496240106927,181.06910130332926,33.48978284704347,0.0,0,,,,,,
49.00000000000033,3.0166273977640032,193.96732451091546,181.46637424714862,34.187486656356874,0.0,0,,,,,,
50.000000000000334,3.0455824069417528,194.88502501113823,181.86364719096798,34.88519046567028,0.0,0,,,,,,
51.00000000000034,3.073964049601131,195.802725511361,182.26092013478734,35.58289427498368,0.0,0,,,,,,
52.00000000000035,3.1017945924030452,196.72042601158375,182.6581930786067,36.28059808429708,0.0,0,,,,,,
53.000000000000355,3.12909502962778,197.63812651180652,183.05546602242606,36.978301893610485,0.0,0,,,,,,
54.00000000000036,3.1558851783062587,198.55582701202928,183.45273896624542,37.67600570292389,0.0,0,,,,,,
55.00000000000037,3.182183764623664,199.47352751225205,183.85001191006478,38.37370951223729,0.0,0,,,,,,
56.00000000000038,3.208008502538954,200.3912280124748,184.24728485388414,39.07141332155069,0.0,0,,,,,,
57.000000000000384,3.2333761654468938,201.30892851269758,184.6445577977035,39.769117130864096,0.0,0,,,,,,
58.00000000000039,3.2583026516086084,202.22662901292034,185.04183074152286,40.4668209401775,0.0,0,,,,,,
59.0000000000004,3.282803043989781,203.1443295131431,185.43910368534222,41.1645247494909,0.0,0,,,,,,
60.000000000000405,3.3068916650704296,204.06203001336587,185.83637662916158,41.862228558804304,0.0,0,,,,,,
61.00000000000041,3.330582127124952,204.97973051358863,186.23364957298094,42.55993236811771,0.0,0,,,,,,
62.00000000000042,3.35388737841436,205.8974310138114,186.6309225168003,43.25763617743111,0.0,0,,,,,,
63.000000000000426,3.3768197456831377,206.81513151403416,187.02819546061966,43.95533998674451,0.0,0,,,,,,
64.00000000000043,3.3993909733098873,207.73283201425693,187.42546840443902,44.653043796057915,0.0,0,,,,,,
65.00000000000043,3.4216122594230436,208.6505325144797,187.82274134825838,45.35074760537132,0.0,0,,,,,,
66.00000000000043,3.443494289259663,209.56823301470246,188.22001429207774,46.04845141468472,0.0,0,,,,,,
67.00000000000043,3.465047266016033,210.48593351492522,188.6172872358971,46.74615522399812,0.0,0,,,,,,
68.00000000000043,3.486280939413049,211.403634015148,189.01456017971645,47.443859033311526,0.0,0,,,,,,
69.00000000000043,3.5072046321765318,212.32133451537075,189.4118331235358,48.14156284262493,0.0,0,,,,,,
70.00000000000043,3.5278272646124824,213.23903501559352,189.80910606735517,48.83926665193833,0.0,0,,,,,,
71.00000000000043,3.548157377439413,214.15673551581628,190.20637901117453,49.536970461251734,0.0,0,,,,,,
72.00000000000043,3.5682031530240086,215.07443601603904,190.6036519549939,50.23467427056514,0.0,0,,,,,,
73.00000000000043,3.587972435152265,215.9921365162618,191.00092489881325,50.93237807987854,0.0,0,,,,,,
74.00000000000043,3.607472747455647,216.90983701648457,191.3981978426326,51.63008188919194,0.0,0,,,,,,
74.99955985200654,3.626702899591748,217.83165914990684,191.78467404122097,52.32747860557335,0.0,0,,,,,,
75.99927052527099,3.6456813018288186,218.77967011485617,192.10200138100544,53.024980550521214,0.0,0,,,,,,
76.99898119853543,3.664411689319784,219.75080462873663,192.33931801798866,53.72248249546908,0.0,0,,,,,,
77.99869187179989,3.6829004606894467,220.738322603737,192.49497687347093,54.41998444041696,0.0,0,,,,,,
78.99840254506437,3.701153770095403,221.7353702438367,192.56789760859135,55.11748638536485,0.0,0,,,,,,
79.99811321832883,3.7191775395249906,222.73502761307404,192.55757412234024,55.81498833031273,0.0,0,,,,,,
80.99782389159328,3.7369774703286516,223.73035666285378,192.46407806411617,56.51249027526061,0.0,0,,,,,,
81.99753456485773,3.754559054045913,224.71444938496418,192.28805833644856,57.20999222020848,0.0,0,,,,,,
82.99724523812218,3.771927582575416,225.68047575610098,192.03073659133722,57.90749416515634,0.0,0,,,,,,
83.99695591138664,3.789088157736116,226.6217311411427,191.6938987514664,58.604996110104224,0.0,0,,,,,,
84.99666658465111,3.8060457002628727,227.53168282617867,191.27988261513943,59.30249805505211,0.0,0,,,,,,
85.99637725791555,3.8228049582761146,228.40401535833033,190.79156163096127,60.0,0.0,0,,,,,,
86.99608793118001,3.8394668028305223,229.2326743776885,190.2323249548793,60.0,0.0,0,,,,,,
87.99579860444446,3.8561286473849297,230.01190863715382,189.60605392799525,60.0,0.0,0,,,,,,
88.99550927770893,3.8727904919393374,230.73630991854515,188.9170951384022,60.0,0.0,0,,,,,,
89.9952199509734,3.889452336493745,231.40085056794084,188.17023025400903,60.0,0.0,0,,,,,,
90.99493062423782,3.9061141810481526,232.00091838974174,187.3706428357251,60.0,0.0,0,,,,,,
91.99464129750231,3.922776025602561,232.5323486572764,186.5238823613364,60.0,0.0,0,,,,,,
92.99435197076676,3.939437870156968,232.9914530177805,185.63582570976232,60.0,0.0,0,,,,,,
93.99406264403122,3.956099714711376,233.3750450911387,184.71263637300868,60.0,0.0,0,,,,,,
94.99377331729568,3.9727615592657837,233.68046258472202,183.76072167890413,60.0,0.0,0,,,,,,
95.99377331729568,3.9894282259324503,233.79632627417104,182.76745655545156,60.0,0.0,0,,,,,,
96.99377331729568,4.006094892599117,233.91218996362005,181.774191431999,60.0,0.0,0,,,,,,
97.99377331729568,4.022761559265784,234.02805365306907,180.7809263085464,60.0,0.0,0,,,,,,
98.99377331729568,4.0394282259324505,234.14391734251808,179.78766118509384,60.0,0.0,0,,,,,,
99.99377331729568,4.056094892599117,234.2597810319671,178.79439606164127,60.0,0.0,0,,,,,,
100.99377331729568,4.072761559265784,234.3756447214161,177.8011309381887,60.0,0.0,0,,,,,,
101.99377331729568,4.08942822593245,234.49150841086512,176.80786581473612,60.0,0.0,0,,,,,,
102.99377331729568,4.106094892599117,234.60737210031414,175.81460069128354,60.0,0.0,0,,,,,,
103.99377331729568,4.122761559265784,234.72323578976315,174.82133556783097,60.0,0.0,0,,,,,,
104.99377331729568,4.13942822593245,234.83909947921217,173.8280704443784,60.0,0.0,0,,,,,,
105.99377331729568,4.156094892599117,234.95496316866118,172.83480532092582,60.0,0.0,0,,,,,,
106.99377331729568,4.172761559265783,235.0708268581102,171.84154019747325,60.0,0.0,0,,,,,,
107.99377331729568,4.18942822593245,235.1866905475592,170.84827507402068,60.0,0.0,0,,,,,,
108.99377331729568,4.206094892599117,235.30255423700822,169.8550099505681,60.0,0.0,0,,,,,,
109.99377331729568,4.222761559265783,235.41841792645724,168.86174482711553,60.0,0.0,0,,,,,,
110.99377331729568,4.23942822593245,235.53428161590625,167.86847970366296,60.0,0.0,0,,,,,,
111.99377331729568,4.256094892599116,235.65014530535527,166.87521458021038,60.0,0.0,0,,,,,,
112.99377331729568,4.272761559265783,235.76600899480428,165.8819494567578,60.0,0.0,0,,,,,,
113.99377331729568,4.28942822593245,235.8818726842533,164.88868433330524,60.0,0.0,0,,,,,,
114.99377331729568,4.306094892599116,235.9977363737023,163.89541920985266,60.0,0.0,0,,,,,,
115.99377331729568,4.322761559265783,236.11360006315132,162.9021540864001,60.0,0.0,0,,,,,,
116.99377331729568,4.3394282259324495,236.22946375260034,161.90888896294751,60.0,0.0,0,,,,,,
117.99377331729568,4.356094892599116,236.34532744204935,160.91562383949494,60.0,0.0,0,,,,,,
118.99377331729568,4.372761559265783,236.46119113149837,159.92235871604237,60.0,0.0,0,,,,,,
119.99377331729568,4.389428225932449,236.57705482094738,158.9290935925898,60.0,0.0,0,,,,,,
120.99377331729568,4.406094892599116,236.6929185103964,157.93582846913722,60.0,0.0,0,,,,,,
121.99377331729568,4.4227615592657825,236.8087821998454,156.94256334568465,60.0,0.0,0,,,,,,
122.99377331729568,4.439428225932449,236.92464588929442,155.94929822223207,60.0,0.0,0,,,,,,
123.99377331729568,4.456094892599116,237.04050957874344,154.9560330987795,60.0,0.0,0,,,,,,
124.99377331729568,4.472761559265782,237.15637326819245,153.96276797532693,60.0,0.0,0,,,,,,
125.99377331729568,4.489428225932449,237.27223695764147,152.96950285187435,60.0,0.0,0,,,,,,
126.99377331729568,4.5060948925991156,237.38810064709048,151.97623772842178,60.0,0.0,0,,,,,,
127.99377331729568,4.522761559265782,237.5039643365395,150.9829726049692,60.0,0.0,0,,,,,,
128.99377331729568,4.539428225932449,237.6198280259885,149.98970748151663,60.0,0.0,0,,,,,,
129.99377331729568,4.556094892599115,237.73569171543753,148.99644235806406,60.0,0.0,0,,,,,,
130.99377331729568,4.572761559265782,237.85155540488654,148.00317723461148,60.0,0.0,0,,,,,,
131.99377331729568,4.589428225932449,237.96741909433555,147.0099121111589,60.0,0.0,0,,,,,,
132.99377331729568,4.606094892599115,238.08328278378457,146.01664698770634,60.0,0.0,0,,,,,,
133.99377331729568,4.622761559265782,238.19914647323358,145.02338186425376,60.0,0.0,0,,,,,,
134.99377331729568,4.639428225932448,238.3150101626826,144.0301167408012,60.0,0.0,0,,,,,,
135.99377331729568,4.656094892599115,238.4308738521316,143.03685161734862,60.0,0.0,0,,,,,,
136.99377331729568,4.672761559265782,238.54673754158063,142.04358649389604,60.0,0.0,0,,,,,,
137.99377331729568,4.689428225932448,238.66260123102964,141.05032137044347,60.0,0.0,0,,,,,,
138.99377331729568,4.706094892599115,238.77846492047865,140.0570562469909,60.0,0.0,0,,,,,,
139.99377331729568,4.7227615592657815,238.89432860992767,139.06379112353832,60.0,0.0,0,,,,,,
140.99377331729568,4.739428225932448,239.01019229937668,138.07052600008575,60.0,0.0,0,,,,,,
141.99377331729568,4.756094892599115,239.1260559888257,137.07726087663318,60.0,0.0,0,,,,,,
142.99377331729568,4.772761559265781,239.2419196782747,136.0839957531806,60.0,0.0,0,,,,,,
143.99377331729568,4.789428225932448,239.35778336772373,135.09073062972803,60.0,0.0,0,,,,,,
144.99377331729568,4.8060948925991145,239.47364705717274,134.09746550627546,60.0,0.0,0,,,,,,
145.99377331729568,4.822761559265781,239.58951074662176,133.10420038282288,60.0,0.0,0,,,,,,
146.95927377830864,4.838853233615997,239.93933933095823,132.2043053323879,60.0,0.0,0,,,,,,
147.95465057446913,4.855442846885339,240.45653253438923,131.353843013023,60.0,0.0,0,,,,,,
148.95465057446913,4.872109513552005,241.43815324645865,131.1630007283052,60.0,0.0,0,,,,,,
149.95465057446913,4.888776180218672,242.41977395852808,130.9721584435874,60.0,0.0,0,,,,,,
150.95465057446913,4.905442846885339,243.4013946705975,130.7813161588696,60.0,0.0,0,,,,,,
151.95465057446913,4.922109513552005,244.38301538266694,130.5904738741518,60.0,0.0,0,,,,,,
152.95465057446913,4.938776180218672,245.36463609473637,130.399631589434,60.0,0.0,0,,,,,,
153.95465057446913,4.955442846885338,246.3462568068058,130.2087893047162,60.0,0.0,0,,,,,,
154.95465057446913,4.972109513552005,247.32787751887523,130.0179470199984,60.0,0.0,0,,,,,,
155.95465057446913,4.988776180218672,248.30949823094466,129.82710473528059,60.0,0.0,0,,,,,,
156.95465057446913,5.005442846885338,249.29111894301408,129.63626245056278,60.0,0.0,0,,,,,,
157.95465057446913,5.022109513552005,250.2727396550835,129.44542016584498,60.0,0.0,0,,,,,,
158.95465057446913,5.0387761802186715,251.25436036715294,129.25457788112718,60.0,0.0,0,,,,,,
159.95465057446913,5.055442846885338,252.23598107922237,129.06373559640937,60.0,0.0,0,,,,,,
160.95465057446913,5.072109513552005,253.2176017912918,128.87289331169157,60.0,0.0,0,,,,,,
161.95465057446913,5.088776180218671,254.19922250336123,128.68205102697377,60.0,0.0,0,,,,,,
162.95465057446913,5.105442846885338,255.18084321543066,128.49120874225596,60.0,0.0,0,,,,,,
163.95465057446913,5.1221095135520045,256.1624639275001,128.30036645753816,60.0,0.0,0,,,,,,
164.9546505744691,5.138776180218671,257.1440846395695,128.10952417282036,60.0,0.0,0,,,,,,
165.95465057446907,5.155442846885338,258.1257053516389,127.91868188810254,60.0,0.0,0,,,,,,
166.95465057446904,5.172109513552004,259.1073260637083,127.72783960338472,60.0,0.0,0,,,,,,
167.954650574469,5.188776180218671,260.0889467757777,127.5369973186669,60.0,0.0,0,,,,,,
168.95465057446899,5.2054428468853375,261.0705674878471,127.34615503394909,60.0,0.0,0,,,,,,
169.95465057446896,5.222109513552004,262.0521881999165,127.15531274923127,60.0,0.0,0,,,,,,
170.95465057446893,5.238776180218671,263.0338089119859,126.96447046451345,60.0,0.0,0,,,,,,
171.9546505744689,5.255442846885337,264.0154296240553,126.77362817979564,60.0,0.0,0,,,,,,
172.95465057446887,5.272109513552004,264.9970503361247,126.58278589507782,60.0,0.0,0,,,,,,
173.95465057446884,5.288776180218671,265.9786710481941,126.39194361036,60.0,0.0,0,,,,,,
174.95465057446881,5.305442846885337,266.9602917602635,126.20110132564218,60.0,0.0,0,,,,,,
175.9546505744688,5.322109513552004,267.9419124723329,126.01025904092437,60.0,0.0,0,,,,,,
176.95465057446876,5.33877618021867,268.9235331844023,125.81941675620655,60.0,0.0,0,,,,,,
177.95465057446873,5.355442846885337,269.9051538964717,125.62857447148873,60.0,0.0,0,,,,,,
178.9546505744687,5.372109513552004,270.8867746085411,125.43773218677092,60.0,0.0,0,,,,,,
179.95465057446867,5.38877618021867,271.8683953206105,125.2468899020531,60.0,0.0,0,,,,,,
180.95465057446864,5.405442846885337,272.8500160326799,125.05604761733528,60.0,0.0,0,,,,,,
181.95465057446862,5.422109513552003,273.8316367447493,124.86520533261746,60.0,0.0,0,,,,,,
182.9546505744686,5.43877618021867,274.8132574568187,124.67436304789965,60.0,0.0,0,,,,,,
183.95465057446856,5.455442846885337,275.7948781688881,124.48352076318183,60.0,0.0,0,,,,,,
184.95465057446853,5.472109513552003,276.7764988809575,124.29267847846401,60.0,0.0,0,,,,,,
185.9546505744685,5.48877618021867,277.7581195930269,124.1018361937462,60.0,0.0,0,,,,,,
186.95465057446847,5.5054428468853365,278.7397403050963,123.91099390902838,60.0,0.0,0,,,,,,
187.95465057446845,5.522109513552003,279.7213610171657,123.72015162431056,60.0,0.0,0,,,,,,
188.95465057446842,5.53877618021867,280.7029817292351,123.52930933959274,60.0,0.0,0,,,,,,
189.9546505744684,5.555442846885336,281.6846024413045,123.33846705487493,60.0,0.0,0,,,,,,
191.17372266960956,5.575760715137689,282.59055519481024,122.52275486202304,60.0,0.0,0,,,,,,
192.17205683607784,5.592399617912161,283.5886794463704,122.50228326254044,60.0,0.0,0,,,,,,
193.1703910025461,5.609038520686632,284.5709747448268,122.6805164092004,60.0,0.0,0,,,,,,
194.1687251690144,5.625677423461103,285.49828007644214,123.05034870889276,60.0,0.0,0,,,,,,
195.1670593354827,5.642316326235575,286.33362670392603,123.59703611490211,60.0,0.0,0,,,,,,
196.16539350195097,5.658955229010046,287.0437119933294,124.29878392552274,60.0,0.0,0,,,,,,
197.16372766841926,5.675594131784518,287.60022708496746,125.12761567003847,60.0,0.0,0,,,,,,
198.16206183488754,5.692233034558989,287.98098547832154,126.05048844232527,60.0,0.0,0,,,,,,
199.16206183488754,5.708899701225656,288.0149014604598,127.04991312991089,60.0,0.0,0,,,,,,
200.16206183488754,5.7255663678923225,288.048817442598,128.0493378174965,60.0,0.0,0,,,,,,
201.16206183488754,5.742233034558989,288.08273342473626,129.04876250508212,60.0,0.0,0,,,,,,
202.16206183488754,5.758899701225656,288.1166494068745,130.04818719266774,60.0,0.0,0,,,,,,
203.16206183488754,5.775566367892322,288.15056538901274,131.04761188025336,60.0,0.0,0,,,,,,
204.16206183488754,5.792233034558989,288.184481371151,132.04703656783897,60.0,0.0,0,,,,,,
205.16206183488754,5.808899701225656,288.2183973532892,133.0464612554246,60.0,0.0,0,,,,,,
