Distance (in),Time (s),X (in),Y (in),Velocity (in/s),Orientation (deg),Touch,Way X (in),Way Y (in),Way Velocity (in/s),Way Orientation (deg),Way Turn Radius (in),Touch this Point
0.0,0.0,149.0,162.0,0.0,0.0,0,149.0,162.0,0.0,0.0,3.0,0.0
0.9999999999999876,0.1666666666666646,149.9551142577277,161.70376233412134,12.0,0.0,0,201.07,145.85,60.0,0.0,3.0,0.0
1.9999999999999751,0.2499999999999969,150.9102285154554,161.40752466824267,12.0,0.0,0,230.97,118.98,60.0,0.0,3.0,0
2.9999999999999627,0.3333333333333292,151.8653427731831,161.111287002364,12.0,0.0,0,312.37,90.91,60.0,0.0,10.0,0
3.9999999999999503,0.4166666666666615,152.8204570309108,160.81504933648534,12.0,0.0,0,312.0,133.24,60.0,0.0,10.0,0
4.999999999999938,0.49999999999999384,153.7755712886385,160.51881167060668,12.0,0.0,0,320.76,195.97,60.0,0.0,10.0,0
5.999999999999925,0.5833333333333262,154.7306855463662,160.22257400472802,12.0,0.0,0,375.28,170.0,60.0,0.0,3.0,0
6.999999999999913,0.6666666666666584,155.6857998040939,159.92633633884935,12.0,0.0,0,413.2,156.82,60.0,0.0,10.0,0.0
7.9999999999999005,0.7499999999999907,156.6409140618216,159.6300986729707,12.0,0.0,0,437.84,110.0,60.0,0.0,3.0,0
8.999999999999888,0.8333333333333229,157.5960283195493,159.33386100709203,12.0,0.0,0,465.62,89.77,0.0,320.0,3.0,0.0
9.999999999999876,0.9166666666666552,158.551142577277,159.03762334121336,12.0,0.0,0,,,,,,
10.999999999999863,0.9996325059656475,159.5062568350047,158.7413856753347,12.10630708854008,0.0,0,,,,,,
11.99999999999985,1.0786427055364045,160.4613710927324,158.44514800945603,13.206880460225541,0.0,0,,,,,,
12.999999999999838,1.151332089141501,161.4164853504601,158.14891034357737,14.307453831911003,0.0,0,,,,,,
13.999999999999826,1.2186370739610348,162.3715996081878,157.8526726776987,15.408027203596465,0.0,0,,,,,,
14.999999999999813,1.2813003356895662,163.3267138659155,157.55643501182004,16.508600575281925,0.0,0,,,,,,
15.999999999999801,1.3399208063388377,164.2818281236432,157.26019734594138,17.60917394696739,0.0,0,,,,,,
16.999999999999787,1.3949885211911834,165.2369423813709,156.96395968006271,18.70974731865285,0.0,0,,,,,,
17.999999999999773,1.446909509480538,166.1920566390986,156.66772201418405,19.81032069033831,0.0,0,,,,,,
18.99999999999976,1.49602395786236,167.1471708968263,156.3714843483054,20.910894062023768,0.0,0,,,,,,
19.999999999999744,1.5426197165835756,168.102285154554,156.07524668242672,22.011467433709228,0.0,0,,,,,,
20.99999999999973,1.586942511464732,169.0573994122817,155.77900901654806,23.112040805394688,0.0,0,,,,,,
21.999999999999716,1.6292037810025788,170.0125136700094,155.4827713506694,24.212614177080148,0.0,0,,,,,,
22.9999999999997,1.669586771894299,170.9676279277371,155.18653368479073,25.313187548765608,0.0,0,,,,,,
23.999999999999687,1.7082513376416906,171.9227421854648,154.89029601891207,26.413760920451068,0.0,0,,,,,,
24.999999999999673,1.7453377578483724,172.8778564431925,154.5940583530334,27.514334292136528,0.0,0,,,,,,
25.99999999999966,1.7809698086351844,173.8329707009202,154.29782068715474,28.614907663821988,0.0,0,,,,,,
26.999999999999645,1.815257253731928,174.78808495864791,154.00158302127608,29.715481035507448,0.0,0,,,,,,
27.99999999999963,1.8482978826433356,175.74319921637561,153.7053453553974,30.816054407192908,0.0,0,,,,,,
28.999999999999616,1.8801791912420622,176.69831347410332,153.40910768951875,31.916627778878368,0.0,0,,,,,,
29.999999999999602,1.9109797775154083,177.65342773183102,153.11287002364008,33.01720115056383,0.0,0,,,,,,
30.999999999999588,1.9407705085011036,178.60854198955872,152.81663235776142,34.11777452224929,0.0,0,,,,,,
31.999999999999574,1.9696155019951895,179.56365624728642,152.52039469188276,35.21834789393475,0.0,0,,,,,,
32.99999999999956,1.9975729572279188,180.51877050501412,152.2241570260041,36.318921265620205,0.0,0,,,,,,
33.999999999999545,2.0246958615581785,181.47388476274182,151.92791936012543,37.41949463730566,0.0,0,,,,,,
34.99999999999953,2.0510325947484307,182.42899902046952,151.63168169424677,38.52006800899112,0.0,0,,,,,,
35.99999999999952,2.0766274481305067,183.38411327819722,151.3354440283681,39.620641380676574,0.0,0,,,,,,
36.9999999999995,2.1015210726528,184.33922753592492,151.03920636248944,40.72121475236203,0.0,0,,,,,,
37.99999999999949,2.1257508671878322,185.29434179365262,150.74296869661077,41.82178812404749,0.0,0,,,,,,
38.999999999999474,2.149351316410266,186.24945605138032,150.4467310307321,42.92236149573294,0.0,0,,,,,,
39.99999999999946,2.17235428590555,187.20457030910802,150.15049336485345,44.0229348674184,0.0,0,,,,,,
40.999999999999446,2.1947892808453946,188.15968456683572,149.85425569897478,45.123508239103856,0.0,0,,,,,,
41.99999999999943,2.216683673497532,189.11479882456342,149.55801803309612,46.22408161078931,0.0,0,,,,,,
42.99999999999942,2.2380629039696194,190.06991308229112,149.26178036721745,47.32465498247477,0.0,0,,,,,,
43.9999999999994,2.25895065787913,191.02502734001882,148.9655427013388,48.425228354160225,0.0,0,,,,,,
44.99999999999939,2.279369024060337,191.98014159774652,148.66930503546013,49.52580172584568,0.0,0,,,,,,
45.999999999999375,2.2993386349408578,192.93525585547422,148.37306736958146,50.62637509753114,0.0,0,,,,,,
46.99999999999936,2.3188787918239484,193.89037011320193,148.0768297037028,51.726948469216595,0.0,0,,,,,,
47.999999999999346,2.3380075769831845,194.84548437092963,147.78059203782414,52.82752184090205,0.0,0,,,,,,
48.99999999999933,2.356741954200993,195.80059862865733,147.48435437194547,53.92809521258751,0.0,0,,,,,,
49.99999999999932,2.375097859151775,196.75571288638503,147.1881167060668,55.028668584272964,0.0,0,,,,,,
50.999999999999304,2.393090280836205,197.71082714411273,146.89187904018814,56.12924195595842,0.0,0,,,,,,
51.99999999999929,2.4107333351092866,198.66594140184043,146.59564137430948,57.22981532764388,0.0,0,,,,,,
52.999999999999275,2.428040331205738,199.62105565956813,146.29940370843082,58.33038869932933,0.0,0,,,,,,
53.99999999999926,2.4450238320480504,200.57616991729583,146.00316604255215,59.43096207101479,0.0,0,,,,,,
54.51703770382239,2.4536821848714276,201.07,145.85,60.0,0.0,0,,,,,,
55.5170377038224,2.4703488515380947,201.8137887117684,145.18158519447434,60.0,0.0,0,,,,,,
56.51703770382242,2.4870155182047617,202.55757742353683,144.51317038894868,60.0,0.0,0,,,,,,
57.51703770382243,2.503682184871429,203.30136613530524,143.84475558342302,60.0,0.0,0,,,,,,
58.517037703822446,2.520348851538096,204.04515484707366,143.17634077789737,60.0,0.0,0,,,,,,
59.51703770382246,2.537015518204763,204.78894355884208,142.5079259723717,60.0,0.0,0,,,,,,
60.517037703822474,2.55368218487143,205.5327322706105,141.83951116684605,60.0,0.0,0,,,,,,
61.51703770382249,2.570348851538097,206.2765209823789,141.1710963613204,60.0,0.0,0,,,,,,
62.5170377038225,2.587015518204764,207.02030969414733,140.50268155579474,60.0,0.0,0,,,,,,
63.51703770382252,2.603682184871431,207.76409840591575,139.83426675026908,60.0,0.0,0,,,,,,
64.51703770382252,2.6203488515380977,208.50788711768416,139.16585194474342,60.0,0.0,0,,,,,,
65.51703770382254,2.6370155182047648,209.25167582945258,138.49743713921777,60.0,0.0,0,,,,,,
66.51703770382255,2.653682184871432,209.995464541221,137.8290223336921,60.0,0.0,0,,,,,,
67.51703770382257,2.670348851538099,210.7392532529894,137.16060752816645,60.0,0.0,0,,,,,,
68.51703770382258,2.687015518204766,211.48304196475783,136.4921927226408,60.0,0.0,0,,,,,,
69.5170377038226,2.703682184871433,212.22683067652625,135.82377791711514,60.0,0.0,0,,,,,,
70.51703770382261,2.7203488515381,212.97061938829466,135.15536311158948,60.0,0.0,0,,,,,,
71.51703770382262,2.737015518204767,213.71440810006308,134.48694830606382,60.0,0.0,0,,,,,,
72.51703770382264,2.753682184871434,214.4581968118315,133.81853350053817,60.0,0.0,0,,,,,,
73.51703770382265,2.770348851538101,215.20198552359992,133.1501186950125,60.0,0.0,0,,,,,,
74.51703770382267,2.7870155182047682,215.94577423536833,132.48170388948685,60.0,0.0,0,,,,,,
75.51703770382268,2.8036821848714353,216.68956294713675,131.8132890839612,60.0,0.0,0,,,,,,
76.5170377038227,2.8203488515381023,217.43335165890517,131.14487427843554,60.0,0.0,0,,,,,,
77.51703770382271,2.8370155182047694,218.17714037067358,130.47645947290988,60.0,0.0,0,,,,,,
78.51703770382272,2.8536821848714364,218.920929082442,129.80804466738422,60.0,0.0,0,,,,,,
79.51703770382274,2.8703488515381035,219.66471779421042,129.13962986185857,60.0,0.0,0,,,,,,
80.51703770382275,2.8870155182047705,220.40850650597883,128.4712150563329,60.0,0.0,0,,,,,,
81.51703770382277,2.9036821848714376,221.15229521774725,127.80280025080725,60.0,0.0,0,,,,,,
82.51703770382278,2.9203488515381046,221.89608392951567,127.1343854452816,60.0,0.0,0,,,,,,
83.5170377038228,2.9370155182047717,222.6398726412841,126.46597063975594,60.0,0.0,0,,,,,,
84.51703770382281,2.9536821848714387,223.3836613530525,125.79755583423028,60.0,0.0,0,,,,,,
85.51703770382282,2.970348851538106,224.12745006482092,125.12914102870462,60.0,0.0,0,,,,,,
86.51703770382284,2.987015518204773,224.87123877658934,124.46072622317897,60.0,0.0,0,,,,,,
87.51703770382285,3.00368218487144,225.61502748835775,123.79231141765331,60.0,0.0,0,,,,,,
88.51703770382287,3.020348851538107,226.35881620012617,123.12389661212765,60.0,0.0,0,,,,,,
89.51703770382288,3.037015518204774,227.1026049118946,122.455481806602,60.0,0.0,0,,,,,,
90.5170377038229,3.053682184871441,227.846393623663,121.78706700107634,60.0,0.0,0,,,,,,
91.51703770382291,3.070348851538108,228.59018233543142,121.11865219555068,60.0,0.0,0,,,,,,
92.51703770382292,3.087015518204775,229.33397104719984,120.45023739002502,60.0,0.0,0,,,,,,
93.51703770382294,3.103682184871442,230.07775975896826,119.78182258449937,60.0,0.0,0,,,,,,
94.51703770382295,3.1203488515381093,230.82154847073667,119.11340777897371,60.0,0.0,0,,,,,,
94.71662601017209,3.123675323310595,230.97,118.98,60.0,0.0,0,,,,,,
95.71662601017208,3.1403419899772618,231.91536927894896,118.65399857911429,60.0,0.0,0,,,,,,
96.71662601017206,3.1570086566439284,232.86073855789792,118.32799715822857,60.0,0.0,0,,,,,,
97.71662601017205,3.173675323310595,233.80610783684688,118.00199573734285,60.0,0.0,0,,,,,,
98.71662601017204,3.1903419899772616,234.75147711579584,117.67599431645714,60.0,0.0,0,,,,,,
99.71662601017202,3.207008656643928,235.6968463947448,117.34999289557142,60.0,0.0,0,,,,,,
100.716626010172,3.223675323310595,236.64221567369376,117.0239914746857,60.0,0.0,0,,,,,,
101.71662601017199,3.2403419899772614,237.58758495264271,116.69799005379998,60.0,0.0,0,,,,,,
102.71662601017198,3.257008656643928,238.53295423159167,116.37198863291427,60.0,0.0,0,,,,,,
103.71662601017196,3.2736753233105946,239.47832351054063,116.04598721202855,60.0,0.0,0,,,,,,
104.71662601017195,3.2903419899772612,240.4236927894896,115.71998579114283,60.0,0.0,0,,,,,,
105.71662601017194,3.307008656643928,241.36906206843855,115.39398437025712,60.0,0.0,0,,,,,,
106.71662601017192,3.3236753233105945,242.3144313473875,115.0679829493714,60.0,0.0,0,,,,,,
107.71662601017191,3.340341989977261,243.25980062633647,114.74198152848568,60.0,0.0,0,,,,,,
108.7166260101719,3.3570086566439277,244.20516990528543,114.41598010759996,60.0,0.0,0,,,,,,
109.71662601017188,3.3736753233105943,245.1505391842344,114.08997868671425,60.0,0.0,0,,,,,,
110.71662601017186,3.390341989977261,246.09590846318335,113.76397726582853,60.0,0.0,0,,,,,,
111.71662601017185,3.4070086566439275,247.0412777421323,113.43797584494281,60.0,0.0,0,,,,,,
112.71662601017184,3.423675323310594,247.98664702108127,113.1119744240571,60.0,0.0,0,,,,,,
113.71662601017182,3.4403419899772607,248.93201630003023,112.78597300317138,60.0,0.0,0,,,,,,
114.71662601017181,3.4570086566439273,249.8773855789792,112.45997158228566,60.0,0.0,0,,,,,,
115.7166260101718,3.473675323310594,250.82275485792815,112.13397016139994,60.0,0.0,0,,,,,,
116.71662601017178,3.4903419899772605,251.7681241368771,111.80796874051423,60.0,0.0,0,,,,,,
117.71662601017177,3.507008656643927,252.71349341582606,111.48196731962851,60.0,0.0,0,,,,,,
118.71662601017175,3.5236753233105937,253.65886269477502,111.15596589874279,60.0,0.0,0,,,,,,
119.71662601017174,3.5403419899772604,254.60423197372398,110.82996447785708,60.0,0.0,0,,,,,,
120.71662601017172,3.557008656643927,255.54960125267294,110.50396305697136,60.0,0.0,0,,,,,,
121.71662601017171,3.5736753233105936,256.4949705316219,110.17796163608564,60.0,0.0,0,,,,,,
122.71662601017172,3.5903419899772606,257.4403398105709,109.85196021519992,60.0,0.0,0,,,,,,
123.71662601017174,3.6070086566439277,258.3857090895199,109.5259587943142,60.0,0.0,0,,,,,,
124.71662601017175,3.6236753233105947,259.33107836846887,109.19995737342849,60.0,0.0,0,,,,,,
125.71662601017177,3.6403419899772618,260.27644764741785,108.87395595254277,60.0,0.0,0,,,,,,
126.71662601017178,3.657008656643929,261.22181692636684,108.54795453165706,60.0,0.0,0,,,,,,
127.7166260101718,3.673675323310596,262.16718620531583,108.22195311077134,60.0,0.0,0,,,,,,
128.7166260101718,3.690341989977263,263.1125554842648,107.89595168988562,60.0,0.0,0,,,,,,
129.71662601017184,3.70700865664393,264.0579247632138,107.5699502689999,60.0,0.0,0,,,,,,
130.71662601017186,3.723675323310597,265.0032940421628,107.24394884811419,60.0,0.0,0,,,,,,
131.7166260101719,3.740341989977264,265.9486633211118,106.91794742722847,60.0,0.0,0,,,,,,
132.71662601017192,3.757008656643931,266.89403260006077,106.59194600634275,60.0,0.0,0,,,,,,
133.71662601017195,3.773675323310598,267.83940187900976,106.26594458545704,60.0,0.0,0,,,,,,
134.71662601017198,3.7903419899772652,268.78477115795874,105.93994316457132,60.0,0.0,0,,,,,,
135.716626010172,3.8070086566439323,269.73014043690773,105.6139417436856,60.0,0.0,0,,,,,,
136.71662601017204,3.8236753233105993,270.6755097158567,105.28794032279988,60.0,0.0,0,,,,,,
137.71662601017206,3.8403419899772664,271.6208789948057,104.96193890191417,60.0,0.0,0,,,,,,
138.7166260101721,3.8570086566439334,272.5662482737547,104.63593748102845,60.0,0.0,0,,,,,,
139.71662601017212,3.8736753233106005,273.5116175527037,104.30993606014273,60.0,0.0,0,,,,,,
140.71662601017215,3.8903419899772675,274.45698683165267,103.98393463925701,60.0,0.0,0,,,,,,
141.71662601017218,3.9070086566439346,275.40235611060166,103.6579332183713,60.0,0.0,0,,,,,,
142.7166260101722,3.9236753233106016,276.34772538955065,103.33193179748558,60.0,0.0,0,,,,,,
143.71662601017223,3.9403419899772687,277.29309466849963,103.00593037659986,60.0,0.0,0,,,,,,
144.71662601017226,3.9570086566439358,278.2384639474486,102.67992895571415,60.0,0.0,0,,,,,,
145.7166260101723,3.973675323310603,279.1838332263976,102.35392753482843,60.0,0.0,0,,,,,,
146.71662601017232,3.99034198997727,280.1292025053466,102.02792611394271,60.0,0.0,0,,,,,,
147.71662601017235,4.007008656643937,281.0745717842956,101.701924693057,60.0,0.0,0,,,,,,
148.71662601017238,4.023675323310605,282.0199410632446,101.37592327217128,60.0,0.0,0,,,,,,
149.7166260101724,4.040341989977272,282.96531034219356,101.04992185128556,60.0,0.0,0,,,,,,
150.71662601017243,4.05700865664394,283.91067962114255,100.72392043039984,60.0,0.0,0,,,,,,
151.71662601017246,4.073675323310607,284.85604890009154,100.39791900951413,60.0,0.0,0,,,,,,
152.7166260101725,4.090341989977275,285.8014181790405,100.07191758862841,60.0,0.0,0,,,,,,
153.71662601017252,4.107008656643942,286.7467874579895,99.74591616774269,60.0,0.0,0,,,,,,
154.71662601017255,4.12367532331061,287.6921567369385,99.41991474685697,60.0,0.0,0,,,,,,
155.71662601017258,4.140341989977277,288.6375260158875,99.09391332597126,60.0,0.0,0,,,,,,
156.7166260101726,4.157008656643945,289.5828952948365,98.76791190508554,60.0,0.0,0,,,,,,
157.71662601017263,4.173675323310612,290.52826457378546,98.44191048419982,60.0,0.0,0,,,,,,
158.71662601017266,4.19034198997728,291.47363385273445,98.1159090633141,60.0,0.0,0,,,,,,
159.7166260101727,4.207008656643947,292.41900313168344,97.78990764242839,60.0,0.0,0,,,,,,
160.71662601017272,4.223675323310615,293.3643724106324,97.46390622154267,60.0,0.0,0,,,,,,
161.71662601017275,4.240341989977282,294.3097416895814,97.13790480065695,60.0,0.0,0,,,,,,
162.71662601017277,4.25700865664395,295.2551109685304,96.81190337977124,60.0,0.0,0,,,,,,
163.7166260101728,4.273675323310617,296.2004802474794,96.48590195888552,60.0,0.0,0,,,,,,
164.71662601017283,4.290341989977285,297.1458495264284,96.1599005379998,60.0,0.0,0,,,,,,
165.71662601017286,4.307008656643952,298.09121880537737,95.83389911711409,60.0,0.0,0,,,,,,
166.71662528207932,4.323675311175727,299.0366329046387,95.50802993365023,60.0,0.0,0,,,,,,
167.71620866749285,4.340335034265952,299.99817071384103,95.23487798716418,60.0,0.0,0,,,,,,
168.7157920529064,4.356994757356178,300.98217453115114,95.05908426738453,60.0,0.0,0,,,,,,
169.71537543832,4.373654480446405,301.97881251569487,94.98240524704967,60.0,0.0,0,,,,,,
170.71495882373355,4.39031420353663,302.9781265901753,95.00560707758403,60.0,0.0,0,,,,,,
171.7145422091471,4.406973926626856,303.9701319386896,95.12845793396646,60.0,0.0,0,,,,,,
172.7141255945607,4.4236336497170825,304.94491677170873,95.34973033104905,60.0,0.0,0,,,,,,
173.71370897997429,4.440293372807309,305.8927413614023,95.66721338818309,60.0,0.0,0,,,,,,
174.71329236538782,4.456953095897535,306.80413535777905,96.07773491960764,60.0,0.0,0,,,,,,
175.71287575080137,4.47361281898776,307.66999241329415,96.57719312988108,60.0,0.0,0,,,,,,
176.71245913621496,4.490272542077987,308.48166117046316,97.1605975976653,60.0,0.0,0,,,,,,
177.71204252162855,4.5069322651682135,309.23103170336645,97.82211913836608,60.0,0.0,0,,,,,,
178.7116259070421,4.523591988258439,309.91061654934816,98.55514804741867,60.0,0.0,0,,,,,,
179.71120929245566,4.540251711348665,310.5136255212682,99.35236014227097,60.0,0.0,0,,,,,,
180.71079267786922,4.556911434438891,311.03403355280733,100.2057899431945,60.0,0.0,0,,,,,,
181.71037606328278,4.573571157529116,311.4666408989385,101.10691026172482,60.0,0.0,0,,,,,,
182.70995944869637,4.590230880619343,311.8071250900602,102.04671740150994,60.0,0.0,0,,,,,,
183.70954283410993,4.6068906037095685,312.05208412068373,103.01582112026806,60.0,0.0,0,,,,,,
184.70912621952348,4.623550326799794,312.1990704411478,104.00453845398447,60.0,0.0,0,,,,,,
185.70912621952348,4.640216993466461,312.1903299293035,105.00450025498124,60.0,0.0,0,,,,,,
186.70912621952348,4.656883660133127,312.18158941745924,106.00446205597801,60.0,0.0,0,,,,,,
187.70912621952348,4.673550326799794,312.17284890561496,107.00442385697478,60.0,0.0,0,,,,,,
188.70912621952348,4.690216993466461,312.1641083937707,108.00438565797155,60.0,0.0,0,,,,,,
189.70912621952348,4.706883660133127,312.1553678819264,109.00434745896833,60.0,0.0,0,,,,,,
190.70912621952348,4.723550326799794,312.1466273700821,110.0043092599651,60.0,0.0,0,,,,,,
191.70912621952348,4.74021699346646,312.13788685823783,111.00427106096187,60.0,0.0,0,,,,,,
192.70912621952348,4.756883660133127,312.12914634639355,112.00423286195864,60.0,0.0,0,,,,,,
193.70912621952348,4.773550326799794,312.1204058345493,113.00419466295541,60.0,0.0,0,,,,,,
194.70912621952348,4.79021699346646,312.111665322705,114.00415646395219,60.0,0.0,0,,,,,,
195.70912621952348,4.806883660133127,312.1029248108607,115.00411826494896,60.0,0.0,0,,,,,,
196.70912621952348,4.8235503267997935,312.09418429901643,116.00408006594573,60.0,0.0,0,,,,,,
197.70912621952348,4.84021699346646,312.08544378717215,117.0040418669425,60.0,0.0,0,,,,,,
198.70912621952348,4.856883660133127,312.0767032753279,118.00400366793927,60.0,0.0,0,,,,,,
199.70912621952348,4.873550326799793,312.0679627634836,119.00396546893604,60.0,0.0,0,,,,,,
200.70912621952348,4.89021699346646,312.0592222516393,120.00392726993282,60.0,0.0,0,,,,,,
201.70912621952348,4.9068836601331265,312.05048173979503,121.00388907092959,60.0,0.0,0,,,,,,
202.70912621952348,4.923550326799793,312.04174122795075,122.00385087192636,60.0,0.0,0,,,,,,
203.70912621952348,4.94021699346646,312.03300071610647,123.00381267292313,60.0,0.0,0,,,,,,
204.70912621952348,4.956883660133126,312.0242602042622,124.0037744739199,60.0,0.0,0,,,,,,
205.70912621952348,4.973550326799793,312.0155196924179,125.00373627491668,60.0,0.0,0,,,,,,
206.70912621952348,4.9902169934664595,312.00677918057363,126.00369807591345,60.0,0.0,0,,,,,,
