Distance (in),Time (s),X (in),Y (in),Velocity (in/s),Orientation (deg),Touch,Way X (in),Way Y (in),Way Velocity (in/s),Way Orientation (deg),Way Turn Radius (in),Touch this Point
0.0,0.0,149.0,162.0,0.0,0.0,0,149.0,162.0,0.0,0.0,3.0,0.0
0.999999999999997,0.16666666666666616,149.9934980989496,161.88615129608326,12.0,0.0,0,188.88,157.43,60.0,0.0,3.0,0.0
1.999999999999994,0.24999999999999922,150.9869961978992,161.7723025921665,12.0,0.0,0,255.0,135.0,60.0,0.0,20.0,0
2.999999999999991,0.3333333333333323,151.9804942968488,161.65845388824977,12.0,0.0,0,324.81,125.73,60.0,330.0,10.0,0.0
3.999999999999988,0.4166666666666654,152.9739923957984,161.54460518433302,12.0,0.0,0,340.0,190.04,60.0,60.0,3.0,0
4.999999999999985,0.4999999999999985,153.967490494748,161.43075648041628,12.0,0.0,0,380.89,195.53,60.0,60.0,10.0,0
5.999999999999982,0.5833333333333316,154.9609885936976,161.31690777649953,12.0,0.0,0,410.15,166.0,60.0,320.0,3.0,0.0
6.99999999999998,0.6666666666666647,155.9544866926472,161.2030590725828,12.0,0.0,0,436.36,131.22,60.0,320.0,3.0,0.0
7.999999999999977,0.7499999999999979,156.9479847915968,161.08921036866604,12.0,0.0,0,452.21,107.0,60.0,320.0,10.0,0.0
8.999999999999973,0.8285774894488667,157.9414828905464,160.9753616647493,13.452582082065815,0.0,0,477.81,77.58,0.0,320.0,3.0,0.0
9.99999999999997,0.8990002837699363,158.934980989496,160.86151296083256,14.94731342451757,0.0,0,,,,,,
10.999999999999966,0.9627161452985232,159.9284790884456,160.7476642569158,16.442044766969328,0.0,0,,,,,,
11.999999999999963,1.0208914971289722,160.9219771873952,160.63381555299907,17.936776109421086,0.0,0,,,,,,
12.99999999999996,1.074412820812985,161.91547528634482,160.51996684908232,19.431507451872843,0.0,0,,,,,,
13.999999999999956,1.123969602001886,162.90897338529442,160.40611814516558,20.9262387943246,0.0,0,,,,,,
14.999999999999952,1.1701086741432765,163.90247148424402,160.29226944124883,22.420970136776358,0.0,0,,,,,,
15.999999999999948,1.2132710319529643,164.89596958319362,160.1784207373321,23.915701479228115,0.0,0,,,,,,
16.999999999999947,1.253817489289338,165.88946768214322,160.06457203341535,25.410432821679873,0.0,0,,,,,,
17.999999999999943,1.29204700620649,166.88296578109282,159.9507233294986,26.90516416413163,0.0,0,,,,,,
18.99999999999994,1.328210062749742,167.87646388004242,159.83687462558186,28.399895506583388,0.0,0,,,,,,
19.999999999999936,1.3625186035728272,168.86996197899202,159.7230259216651,29.894626849035145,0.0,0,,,,,,
20.999999999999932,1.3951535570386888,169.86346007794162,159.60917721774837,31.389358191486902,0.0,0,,,,,,
21.99999999999993,1.4262706056921848,170.85695817689123,159.49532851383162,32.884089533938656,0.0,0,,,,,,
22.999999999999925,1.4560046744055253,171.85045627584083,159.38147980991488,34.378820876390414,0.0,0,,,,,,
23.999999999999922,1.4844734635991492,172.84395437479043,159.26763110599813,35.87355221884217,0.0,0,,,,,,
24.99999999999992,1.511780261397115,173.83745247374003,159.1537824020814,37.36828356129393,0.0,0,,,,,,
25.999999999999915,1.5380162043794743,174.83095057268963,159.03993369816465,38.863014903745686,0.0,0,,,,,,
26.99999999999991,1.5632621117775936,175.82444867163923,158.9260849942479,40.35774624619744,0.0,0,,,,,,
27.999999999999908,1.5875899861794176,176.81794677058883,158.81223629033116,41.8524775886492,0.0,0,,,,,,
28.999999999999904,1.6110642509531075,177.81144486953843,158.6983875864144,43.34720893110096,0.0,0,,,,,,
29.9999999999999,1.6337427779378586,178.80494296848804,158.58453888249767,44.841940273552716,0.0,0,,,,,,
30.999999999999897,1.6556777466608148,179.79844106743764,158.47069017858092,46.33667161600447,0.0,0,,,,,,
31.999999999999893,1.6769163671703438,180.79193916638724,158.35684147466418,47.83140295845623,0.0,0,,,,,,
32.99999999999989,1.697501491664195,181.78543726533684,158.24299277074743,49.326134300907995,0.0,0,,,,,,
33.99999999999989,1.7174721348298716,182.77893536428644,158.1291440668307,50.82086564335976,0.0,0,,,,,,
34.99999999999989,1.7368639187733546,183.77243346323604,158.01529536291395,52.315596985811524,0.0,0,,,,,,
35.99999999999989,1.7557094552818098,184.76593156218564,157.9014466589972,53.81032832826329,0.0,0,,,,,,
36.99999999999989,1.7740386757215403,185.75942966113524,157.78759795508046,55.30505967071505,0.0,0,,,,,,
37.99999999999989,1.7918791169495447,186.75292776008484,157.6737492511637,56.79979101316682,0.0,0,,,,,,
38.99999999999989,1.8092561700937049,187.74642585903445,157.55990054724697,58.29452235561858,0.0,0,,,,,,
39.99999999999989,1.8261932978418103,188.73992395798405,157.44605184333022,59.78925369807035,0.0,0,,,,,,
40.14099276300974,1.8285486571209402,188.88,157.43,59.93155854415945,0.0,0,,,,,,
41.14099276300975,1.8452248349700224,189.826994262532,157.1087495264883,60.0,0.0,0,,,,,,
42.140992763009756,1.8618915016366893,190.773988525064,156.7874990529766,60.0,0.0,0,,,,,,
43.14099276300976,1.878558168303356,191.720982787596,156.46624857946492,60.0,0.0,0,,,,,,
44.14099276300977,1.895224834970023,192.667977050128,156.14499810595322,60.0,0.0,0,,,,,,
45.14099276300978,1.9118915016366897,193.61497131266,155.82374763244152,60.0,0.0,0,,,,,,
46.140992763009784,1.9285581683033566,194.561965575192,155.50249715892983,60.0,0.0,0,,,,,,
47.14099276300979,1.9452248349700234,195.508959837724,155.18124668541813,60.0,0.0,0,,,,,,
48.1409927630098,1.9618915016366902,196.455954100256,154.85999621190643,60.0,0.0,0,,,,,,
49.140992763009805,1.978558168303357,197.402948362788,154.53874573839474,60.0,0.0,0,,,,,,
50.14099276300981,1.995224834970024,198.34994262532,154.21749526488304,60.0,0.0,0,,,,,,
51.14099276300982,2.0118915016366907,199.296936887852,153.89624479137134,60.0,0.0,0,,,,,,
52.14099276300983,2.0285581683033573,200.24393115038401,153.57499431785965,60.0,0.0,0,,,,,,
53.140992763009834,2.045224834970024,201.19092541291602,153.25374384434795,60.0,0.0,0,,,,,,
54.14099276300984,2.0618915016366905,202.13791967544802,152.93249337083626,60.0,0.0,0,,,,,,
55.14099276300985,2.078558168303357,203.08491393798002,152.61124289732456,60.0,0.0,0,,,,,,
56.140992763009855,2.0952248349700238,204.03190820051202,152.28999242381286,60.0,0.0,0,,,,,,
57.14099276300986,2.1118915016366904,204.97890246304402,151.96874195030117,60.0,0.0,0,,,,,,
58.14099276300987,2.128558168303357,205.92589672557602,151.64749147678947,60.0,0.0,0,,,,,,
59.140992763009876,2.1452248349700236,206.87289098810803,151.32624100327777,60.0,0.0,0,,,,,,
60.14099276300988,2.16189150163669,207.81988525064003,151.00499052976608,60.0,0.0,0,,,,,,
61.14099276300989,2.178558168303357,208.76687951317203,150.68374005625438,60.0,0.0,0,,,,,,
62.1409927630099,2.1952248349700234,209.71387377570403,150.36248958274268,60.0,0.0,0,,,,,,
63.140992763009905,2.21189150163669,210.66086803823603,150.041239109231,60.0,0.0,0,,,,,,
64.14099276300992,2.228558168303357,211.60786230076803,149.7199886357193,60.0,0.0,0,,,,,,
65.14099276300993,2.245224834970024,212.55485656330004,149.3987381622076,60.0,0.0,0,,,,,,
66.14099276300995,2.261891501636691,213.50185082583204,149.0774876886959,60.0,0.0,0,,,,,,
67.14099276300996,2.2785581683033582,214.44884508836404,148.7562372151842,60.0,0.0,0,,,,,,
68.14099276300998,2.2952248349700253,215.39583935089604,148.4349867416725,60.0,0.0,0,,,,,,
69.14099276300999,2.3118915016366923,216.34283361342804,148.1137362681608,60.0,0.0,0,,,,,,
70.14099276301,2.3285581683033594,217.28982787596004,147.7924857946491,60.0,0.0,0,,,,,,
71.14099276301002,2.3452248349700264,218.23682213849204,147.4712353211374,60.0,0.0,0,,,,,,
72.14099276301003,2.3618915016366935,219.18381640102405,147.14998484762572,60.0,0.0,0,,,,,,
73.14099276301005,2.3785581683033605,220.13081066355605,146.82873437411402,60.0,0.0,0,,,,,,
74.14099276301006,2.3952248349700276,221.07780492608805,146.50748390060232,60.0,0.0,0,,,,,,
75.14099276301008,2.4118915016366946,222.02479918862005,146.18623342709063,60.0,0.0,0,,,,,,
76.14099276301009,2.4285581683033617,222.97179345115205,145.86498295357893,60.0,0.0,0,,,,,,
77.1409927630101,2.4452248349700287,223.91878771368405,145.54373248006723,60.0,0.0,0,,,,,,
78.14099276301012,2.461891501636696,224.86578197621606,145.22248200655554,60.0,0.0,0,,,,,,
79.14099276301013,2.478558168303363,225.81277623874806,144.90123153304384,60.0,0.0,0,,,,,,
80.14099276301015,2.49522483497003,226.75977050128006,144.57998105953214,60.0,0.0,0,,,,,,
81.14099276301016,2.511891501636697,227.70676476381206,144.25873058602045,60.0,0.0,0,,,,,,
82.14099276301017,2.528558168303364,228.65375902634406,143.93748011250875,60.0,0.0,0,,,,,,
83.14099276301019,2.545224834970031,229.60075328887606,143.61622963899705,60.0,0.0,0,,,,,,
84.1409927630102,2.561891501636698,230.54774755140807,143.29497916548536,60.0,0.0,0,,,,,,
85.14099276301022,2.578558168303365,231.49474181394007,142.97372869197366,60.0,0.0,0,,,,,,
86.14099276301023,2.595224834970032,232.44173607647207,142.65247821846197,60.0,0.0,0,,,,,,
87.14099276301025,2.6118915016366993,233.38873033900407,142.33122774495027,60.0,0.0,0,,,,,,
88.14099276301026,2.6285581683033663,234.33572460153607,142.00997727143857,60.0,0.0,0,,,,,,
89.14099276301027,2.6452248349700334,235.28271886406807,141.68872679792688,60.0,0.0,0,,,,,,
90.14099276301029,2.6618915016367004,236.22971312660007,141.36747632441518,60.0,0.0,0,,,,,,
91.1409927630103,2.6785581683033675,237.17670738913208,141.04622585090348,60.0,0.0,0,,,,,,
92.14099276301032,2.6952248349700345,238.12370165166408,140.7249753773918,60.0,0.0,0,,,,,,
93.14099276301033,2.7118915016367016,239.07069591419608,140.4037249038801,60.0,0.0,0,,,,,,
94.14099276301035,2.7285581683033686,240.01769017672808,140.0824744303684,60.0,0.0,0,,,,,,
95.14099276301036,2.7452248349700357,240.96468443926008,139.7612239568567,60.0,0.0,0,,,,,,
96.14099276301037,2.7618915016367027,241.91167870179208,139.439973483345,60.0,0.0,0,,,,,,
97.14099276301039,2.7785581683033698,242.8586729643241,139.1187230098333,60.0,0.0,0,,,,,,
98.1409927630104,2.795224834970037,243.8056672268561,138.7974725363216,60.0,0.0,0,,,,,,
99.14099276301042,2.811891501636704,244.7526614893881,138.4762220628099,60.0,0.0,0,,,,,,
100.14099276301043,2.828558168303371,245.6996557519201,138.1549715892982,60.0,0.0,0,,,,,,
101.14099276301044,2.845224834970038,246.6466500144521,137.83372111578652,60.0,0.0,0,,,,,,
102.14099276301046,2.861891501636705,247.5936442769841,137.51247064227482,60.0,0.0,0,,,,,,
103.14099276301047,2.878558168303372,248.5406385395161,137.19122016876312,60.0,0.0,0,,,,,,
104.14099276301049,2.895224834970039,249.4876328020481,136.86996969525143,60.0,0.0,0,,,,,,
105.1409927630105,2.911891501636706,250.4346270645801,136.54871922173973,60.0,0.0,0,,,,,,
106.14099276301052,2.9285581683033732,251.3816213271121,136.22746874822803,60.0,0.0,0,,,,,,
107.14099276301053,2.9452248349700403,252.3286155896441,135.90621827471634,60.0,0.0,0,,,,,,
108.14098975033377,2.9618914514254278,253.2757546263708,135.58540427913013,60.0,0.0,0,,,,,,
109.14088558692227,2.978556382035236,254.23237903983303,135.29443793125628,60.0,0.0,0,,,,,,
110.14078142351075,2.995221312645044,255.20235017823106,135.05164650903998,60.0,359.5652732334703,0,,,,,,
111.14078142351075,3.0118879793117106,256.1936486268314,134.92001298062678,60.0,359.1305011796002,0,,,,,,
112.14078142351077,3.0285546459783776,257.1849470754318,134.78837945221358,60.0,358.6957291257301,0,,,,,,
113.1407814235108,3.0452213126450447,258.1762455240322,134.65674592380037,60.0,358.26095707186,0,,,,,,
114.14078142351083,3.0618879793117117,259.1675439726326,134.52511239538717,60.0,357.8261850179899,0,,,,,,
115.14078142351086,3.078554645978379,260.158842421233,134.39347886697396,60.0,357.3914129641198,0,,,,,,
116.14078142351089,3.095221312645046,261.15014086983336,134.26184533856076,60.0,356.95664091024975,0,,,,,,
117.14078142351092,3.111887979311713,262.14143931843375,134.13021181014756,60.0,356.5218688563796,0,,,,,,
118.14078142351094,3.12855464597838,263.13273776703414,133.99857828173435,60.0,356.08709680250956,0,,,,,,
119.14078142351097,3.145221312645047,264.12403621563453,133.86694475332115,60.0,355.65232474863944,0,,,,,,
120.140781423511,3.161887979311714,265.1153346642349,133.73531122490795,60.0,355.2175526947693,0,,,,,,
121.14078142351103,3.178554645978381,266.1066331128353,133.60367769649474,60.0,354.78278064089926,0,,,,,,
122.14078142351106,3.195221312645048,267.0979315614357,133.47204416808154,60.0,354.34800858702914,0,,,,,,
123.14078142351109,3.211887979311715,268.0892300100361,133.34041063966833,60.0,353.9132365331591,0,,,,,,
124.14078142351111,3.2285546459783823,269.0805284586365,133.20877711125513,60.0,353.47846447928896,0,,,,,,
125.14078142351114,3.2452213126450493,270.07182690723687,133.07714358284193,60.0,353.0436924254189,0,,,,,,
126.14078142351117,3.2618879793117164,271.06312535583726,132.94551005442872,60.0,352.6089203715488,0,,,,,,
127.1407814235112,3.2785546459783834,272.05442380443765,132.81387652601552,60.0,352.17414831767866,0,,,,,,
128.1407814235112,3.2952213126450505,273.04572225303804,132.68224299760232,60.0,351.7393762638086,0,,,,,,
129.14078142351124,3.3118879793117175,274.0370207016384,132.5506094691891,60.0,351.3046042099385,0,,,,,,
130.14078142351127,3.3285546459783846,275.0283191502388,132.4189759407759,60.0,350.8698321560684,0,,,,,,
131.1407814235113,3.3452213126450516,276.0196175988392,132.2873424123627,60.0,350.4350601021983,0,,,,,,
132.14078142351133,3.3618879793117187,277.0109160474396,132.1557088839495,60.0,350.00028804832823,0,,,,,,
133.14078142351136,3.3785546459783857,278.00221449604,132.0240753555363,60.0,349.5655159944581,0,,,,,,
134.14078142351138,3.395221312645053,278.9935129446404,131.8924418271231,60.0,349.13074394058805,0,,,,,,
135.1407814235114,3.41188797931172,279.98481139324076,131.7608082987099,60.0,348.6959718867179,0,,,,,,
136.14078142351144,3.428554645978387,280.97610984184115,131.6291747702967,60.0,348.26119983284786,0,,,,,,
137.14078142351147,3.445221312645054,281.96740829044154,131.49754124188348,60.0,347.82642777897775,0,,,,,,
138.1407814235115,3.461887979311721,282.95870673904193,131.36590771347028,60.0,347.3916557251076,0,,,,,,
139.14078142351153,3.478554645978388,283.9500051876423,131.23427418505707,60.0,346.95688367123756,0,,,,,,
140.14078142351156,3.495221312645055,284.9413036362427,131.10264065664387,60.0,346.52211161736744,0,,,,,,
141.14078142351158,3.511887979311722,285.9326020848431,130.97100712823067,60.0,346.0873395634974,0,,,,,,
142.1407814235116,3.528554645978389,286.9239005334435,130.83937359981746,60.0,345.65256750962726,0,,,,,,
143.14078142351164,3.5452213126450562,287.9151989820439,130.70774007140426,60.0,345.2177954557572,0,,,,,,
144.14078142351167,3.5618879793117233,288.90649743064427,130.57610654299106,60.0,344.7830234018871,0,,,,,,
145.1407814235117,3.5785546459783903,289.89779587924465,130.44447301457785,60.0,344.34825134801696,0,,,,,,
146.14078142351173,3.5952213126450574,290.88909432784504,130.31283948616465,60.0,343.9134792941469,0,,,,,,
147.14078142351175,3.6118879793117245,291.88039277644543,130.18120595775144,60.0,343.4787072402768,0,,,,,,
148.14078142351178,3.6285546459783915,292.8716912250458,130.04957242933824,60.0,343.0439351864067,0,,,,,,
149.1407814235118,3.6452213126450586,293.8629896736462,129.91793890092504,60.0,342.6091631325366,0,,,,,,
150.14078142351184,3.6618879793117256,294.8542881222466,129.78630537251183,60.0,342.17439107866653,0,,,,,,
151.14078142351187,3.6785546459783927,295.845586570847,129.65467184409863,60.0,341.7396190247964,0,,,,,,
152.1407814235119,3.6952213126450597,296.8368850194474,129.52303831568543,60.0,341.3048469709263,0,,,,,,
153.14078142351192,3.7118879793117268,297.82818346804777,129.39140478727222,60.0,340.87007491705623,0,,,,,,
154.14078142351195,3.728554645978394,298.81948191664816,129.25977125885902,60.0,340.4353028631861,0,,,,,,
155.14078142351198,3.745221312645061,299.81078036524855,129.12813773044581,60.0,340.00053080931605,0,,,,,,
156.140781423512,3.761887979311728,300.80207881384894,128.9965042020326,60.0,339.5657587554459,0,,,,,,
157.14078142351204,3.778554645978395,301.7933772624493,128.8648706736194,60.0,339.13098670157586,0,,,,,,
158.14078142351207,3.795221312645062,302.7846757110497,128.7332371452062,60.0,338.69621464770574,0,,,,,,
159.1407814235121,3.811887979311729,303.7759741596501,128.601603616793,60.0,338.2614425938357,0,,,,,,
160.14078142351212,3.828554645978396,304.7672726082505,128.4699700883798,60.0,337.82667053996556,0,,,,,,
161.14078142351215,3.845221312645063,305.7585710568509,128.3383365599666,60.0,337.39189848609544,0,,,,,,
162.14078142351218,3.8618879793117302,306.7498695054513,128.2067030315534,60.0,336.9571264322254,0,,,,,,
163.1407814235122,3.8785546459783973,307.74116795405166,128.07506950314018,60.0,336.52235437835526,0,,,,,,
164.14078142351224,3.8952213126450643,308.73246640265205,127.94343597472698,60.0,336.0875823244852,0,,,,,,
165.14078142351227,3.9118879793117314,309.72376485125244,127.81180244631378,60.0,335.6528102706151,0,,,,,,
166.1407814235123,3.9285546459783984,310.71506329985283,127.68016891790057,60.0,335.218038216745,0,,,,,,
167.14078142351232,3.9452213126450655,311.7063617484532,127.54853538948737,60.0,334.7832661628749,0,,,,,,
168.14078142351235,3.9618879793117325,312.6976601970536,127.41690186107417,60.0,334.34849410900483,0,,,,,,
169.14078142351238,3.9785546459783996,313.688958645654,127.28526833266096,60.0,333.9137220551347,0,,,,,,
170.1407814235124,3.9952213126450666,314.6802570942544,127.15363480424776,60.0,333.4789500012646,0,,,,,,
171.14078142351244,4.011887979311734,315.6715555428548,127.02200127583455,60.0,333.04417794739453,0,,,,,,
172.1453728170987,4.0286311692048375,316.6606610003259,126.84629054176163,60.0,332.6074096839048,0,,,,,,
173.14495620251225,4.045290892295063,317.66024434440385,126.84657800782684,60.0,332.1728187624142,0,,,,,,
174.14453958792583,4.06195061538529,318.65480523658454,126.94665585822166,60.0,331.73822784092346,0,,,,,,
175.14412297333942,4.078610338475516,319.63440635319137,127.1455241481463,60.0,331.3036369194328,0,,,,,,
176.14370635875295,4.095270061565742,320.5892598436802,127.44119585138492,60.0,330.8690459979422,0,,,,,,
177.14328974416654,4.111929784655969,321.50982512760686,127.83071671401487,60.0,330.43445507645146,0,,,,,,
178.1428731295801,4.128589507746194,322.3869042209526,128.3101947723352,60.0,329.99986415496085,0,,,,,,
179.14245651499365,4.14524923083642,323.2117336393406,128.87483924008154,60.0,331.40561672565815,0,,,,,,
180.14203990040724,4.1619089539266465,323.9760719598747,129.51900837637888,60.0,332.8113692963555,0,,,,,,
181.14162328582077,4.178568677016872,324.67228216671265,130.23626585615125,60.0,334.2171218670528,0,,,,,,
182.14120667123433,4.195228400107098,325.29340795760436,131.01944507975463,60.0,335.62287443775017,0,,,,,,
183.14079005664792,4.211888123197324,325.8332432489641,131.8607207792714,60.0,337.02862700844753,0,,,,,,
184.14037344206147,4.22854784628755,326.2863941850064,132.75168720600072,60.0,338.4343795791449,0,,,,,,
185.14037344206147,4.245214512954217,326.51626849302403,133.72490753178178,60.0,339.840718050963,0,,,,,,
186.14037344206147,4.261881179620883,326.7461428010417,134.69812785756284,60.0,341.2470565227812,0,,,,,,
187.14037344206147,4.27854784628755,326.97601710905934,135.6713481833439,60.0,342.65339499459935,0,,,,,,
188.14037344206147,4.2952145129542165,327.205891417077,136.64456850912495,60.0,344.0597334664175,0,,,,,,
189.14037344206147,4.311881179620883,327.43576572509465,137.617788834906,60.0,345.4660719382357,0,,,,,,
190.14037344206147,4.32854784628755,327.6656400331123,138.59100916068707,60.0,346.8724104100539,0,,,,,,
191.14037344206147,4.345214512954216,327.89551434112997,139.56422948646812,60.0,348.27874888187205,0,,,,,,
192.14037344206147,4.361881179620883,328.1253886491476,140.53744981224918,60.0,349.68508735369016,0,,,,,,
193.14037344206147,4.37854784628755,328.3552629571653,141.51067013803024,60.0,351.09142582550834,0,,,,,,
194.14037344206147,4.395214512954216,328.58513726518294,142.4838904638113,60.0,352.4977642973265,0,,,,,,
195.14037344206147,4.411881179620883,328.8150115732006,143.45711078959235,60.0,353.9041027691447,0,,,,,,
