Distance (in),Time (s),X (in),Y (in),Velocity (in/s),Orientation (deg),Touch,Way X (in),Way Y (in),Way Velocity (in/s),Way Orientation (deg),Way Turn Radius (in),Touch this Point
0.0,0.0,149.0,162.0,0.0,0.0,0,149.0,162.0,0.0,0.0,3.0,0.0
1.0000000000000004,0.16666666666666674,149.99993096123634,161.98824956337148,12.0,0.0,0,245.16,160.87,60.0,0.0,3.0,0.0
2.000000000000001,0.2500000000000001,150.9998619224727,161.97649912674297,12.0,0.0,0,280.0,135.0,60.0,300.0,3.0,0.0
3.0000000000000013,0.3333333333333335,151.99979288370903,161.96474869011445,12.0,0.0,0,330.72,88.0,60.0,300.0,3.0,0.0
4.000000000000002,0.41666666666666685,152.99972384494538,161.95299825348593,12.0,0.0,0,295.0,240.0,60.0,300.0,3.0,0.0
5.000000000000002,0.5000000000000002,153.99965480618172,161.9412478168574,12.0,0.0,0,345.0,192.81,60.0,300.0,3.0,0.0
6.000000000000002,0.5833333333333336,154.99958576741807,161.9294973802289,12.0,0.0,0,389.77,162.0,60.0,0.0,3.0,0.0
7.000000000000002,0.666666666666667,155.9995167286544,161.91774694360038,12.0,0.0,0,476.53,162.0,60.0,0.0,3.0,0.0
8.000000000000002,0.7500000000000003,156.99944768989076,161.90599650697186,12.0,0.0,0,532.0,162.0,12.0,0.0,3.0,0.0
9.000000000000002,0.8333333333333337,157.9993786511271,161.89424607034334,12.0,0.0,0,,,,,,
10.000000000000002,0.9166666666666671,158.99930961236345,161.88249563371483,12.0,0.0,0,,,,,,
11.000000000000002,1.0000000000000004,159.9992405735998,161.8707451970863,12.0,0.0,0,,,,,,
12.000000000000002,1.0833333333333337,160.99917153483614,161.8589947604578,12.0,0.0,0,,,,,,
13.000000000000002,1.166666666666667,161.99910249607248,161.84724432382927,12.0,0.0,0,,,,,,
14.000000000000002,1.2500000000000002,162.99903345730883,161.83549388720076,12.0,0.0,0,,,,,,
15.000000000000002,1.3333333333333335,163.99896441854517,161.82374345057224,12.0,0.0,0,,,,,,
16.000000000000004,1.416666666666667,164.99889537978152,161.81199301394372,12.0,0.0,0,,,,,,
17.000000000000004,1.5000000000000002,165.99882634101786,161.8002425773152,12.0,0.0,0,,,,,,
18.000000000000004,1.5833333333333335,166.9987573022542,161.78849214068669,12.0,0.0,0,,,,,,
19.000000000000004,1.6666666666666667,167.99868826349055,161.77674170405817,12.0,0.0,0,,,,,,
20.000000000000004,1.7483715542436904,168.9986192247269,161.76499126742965,12.478339782483507,0.0,0,,,,,,
21.000000000000004,1.8265558137769238,169.99855018596324,161.75324083080113,13.102256771607683,0.0,0,,,,,,
22.000000000000004,1.9011035961225649,170.99848114719958,161.74149039417262,13.726173760731859,0.0,0,,,,,,
23.000000000000004,1.9723381436972887,171.99841210843593,161.7297399575441,14.350090749856035,0.0,0,,,,,,
24.000000000000004,2.040541433928407,172.99834306967227,161.71798952091558,14.97400773898021,0.0,0,,,,,,
25.000000000000004,2.10596091639499,173.99827403090862,161.70623908428706,15.597924728104386,0.0,0,,,,,,
26.000000000000004,2.1688149289609226,174.99820499214496,161.69448864765855,16.22184171722856,0.0,0,,,,,,
27.000000000000004,2.2292970919960653,175.9981359533813,161.68273821103003,16.845758706352736,0.0,0,,,,,,
28.000000000000004,2.287579903648112,176.99806691461765,161.6709877744015,17.469675695476912,0.0,0,,,,,,
29.000000000000004,2.3438177043649993,177.997997875854,161.659237337773,18.093592684601088,0.0,0,,,,,,
30.000000000000004,2.3981491389558904,178.99792883709034,161.64748690114448,18.717509673725264,0.0,0,,,,,,
31.000000000000004,2.4506992150356046,179.9978597983267,161.63573646451596,19.34142666284944,0.0,0,,,,,,
32.00000000000001,2.501581034731836,180.99779075956303,161.62398602788744,19.965343651973615,0.0,0,,,,,,
33.00000000000001,2.5508972599758755,181.99772172079938,161.61223559125892,20.58926064109779,0.0,0,,,,,,
34.00000000000001,2.598741359093227,182.99765268203572,161.6004851546304,21.213177630221967,0.0,0,,,,,,
35.00000000000001,2.6451986727289163,183.99758364327207,161.5887347180019,21.837094619346143,0.0,0,,,,,,
36.00000000000001,2.6903473296424734,184.9975146045084,161.57698428137337,22.46101160847032,0.0,0,,,,,,
37.00000000000001,2.7342590370515496,185.99744556574475,161.56523384474485,23.084928597594494,0.0,0,,,,,,
38.00000000000001,2.7769997655963836,186.9973765269811,161.55348340811634,23.70884558671867,0.0,0,,,,,,
39.00000000000001,2.8186303453478456,187.99730748821744,161.54173297148782,24.332762575842846,0.0,0,,,,,,
40.00000000000001,2.8592069863714222,188.9972384494538,161.5299825348593,24.956679564967022,0.0,0,,,,,,
41.00000000000001,2.8987817350240466,189.99716941069013,161.51823209823078,25.580596554091198,0.0,0,,,,,,
42.00000000000001,2.937402875275403,190.99710037192648,161.50648166160227,26.204513543215374,0.0,0,,,,,,
43.00000000000001,2.9751152828149623,191.99703133316282,161.49473122497375,26.82843053233955,0.0,0,,,,,,
44.00000000000001,3.0119607384570606,192.99696229439917,161.48298078834523,27.452347521463725,0.0,0,,,,,,
45.00000000000001,3.047978206331921,193.9968932556355,161.4712303517167,28.0762645105879,0.0,0,,,,,,
46.00000000000001,3.083204081506235,194.99682421687186,161.4594799150882,28.700181499712077,0.0,0,,,,,,
47.00000000000001,3.1176724109778755,195.9967551781082,161.44772947845968,29.324098488836253,0.0,0,,,,,,
48.00000000000001,3.151415091408008,196.99668613934455,161.43597904183116,29.94801547796043,0.0,0,,,,,,
49.00000000000001,3.1844620464684468,197.9966171005809,161.42422860520264,30.571932467084604,0.0,0,,,,,,
50.00000000000001,3.2168413862751395,198.99654806181724,161.41247816857413,31.19584945620878,0.0,0,,,,,,
51.00000000000001,3.248579551036155,199.99647902305358,161.4007277319456,31.819766445332956,0.0,0,,,,,,
52.00000000000001,3.279701440753267,200.99640998428993,161.3889772953171,32.44368343445713,0.0,0,,,,,,
53.00000000000001,3.3102305325710057,201.99634094552627,161.37722685868857,33.067600423581304,0.0,0,,,,,,
54.00000000000001,3.3401889871585064,202.99627190676262,161.36547642206006,33.69151741270548,0.0,0,,,,,,
55.00000000000001,3.3695977453315575,203.99620286799896,161.35372598543154,34.315434401829656,0.0,0,,,,,,
56.00000000000001,3.398476615969959,204.9961338292353,161.34197554880302,34.93935139095383,0.0,0,,,,,,
57.00000000000001,3.4268443561545836,205.99606479047165,161.3302251121745,35.56326838007801,0.0,0,,,,,,
58.00000000000001,3.454718744335997,206.995995751708,161.31847467554599,36.18718536920218,0.0,0,,,,,,
59.00000000000001,3.4821166472493523,207.99592671294434,161.30672423891747,36.81110235832636,0.0,0,,,,,,
60.00000000000001,3.509054081206181,208.99585767418068,161.29497380228895,37.435019347450535,0.0,0,,,,,,
61.00000000000001,3.5355462683207475,209.99578863541703,161.28322336566043,38.05893633657471,0.0,0,,,,,,
62.00000000000001,3.5616076881651586,210.99571959665337,161.27147292903192,38.682853325698886,0.0,0,,,,,,
63.00000000000001,3.5872521252920593,211.99565055788972,161.2597224924034,39.30677031482306,0.0,0,,,,,,
64.00000000000001,3.6124927130153868,212.99558151912606,161.24797205577488,39.930687303947245,0.0,0,,,,,,
65.00000000000001,3.637341973797267,213.9955124803624,161.23622161914636,40.55460429307142,0.0,0,,,,,,
66.00000000000001,3.661811856551943,214.99544344159875,161.22447118251785,41.1785212821956,0.0,0,,,,,,
67.00000000000001,3.6859137711448944,215.9953744028351,161.21272074588933,41.80243827131977,0.0,0,,,,,,
68.00000000000001,3.709658620336469,216.99530536407144,161.2009703092608,42.42635526044395,0.0,0,,,,,,
69.00000000000001,3.73305682939386,217.9952363253078,161.1892198726323,43.050272249568124,0.0,0,,,,,,
70.00000000000001,3.7561183735727277,218.99516728654413,161.17746943600378,43.6741892386923,0.0,0,,,,,,
71.00000000000001,3.7788528036497673,219.99509824778048,161.16571899937526,44.298106227816476,0.0,0,,,,,,
72.00000000000001,3.801269269669785,220.99502920901682,161.15396856274674,44.92202321694065,0.0,0,,,,,,
73.00000000000001,3.823376543055044,221.99496017025317,161.14221812611822,45.54594020606483,0.0,0,,,,,,
74.00000000000001,3.845183037210572,222.9948911314895,161.1304676894897,46.169857195189,0.0,0,,,,,,
75.00000000000001,3.8666968267465625,223.99482209272585,161.1187172528612,46.79377418431318,0.0,0,,,,,,
76.00000000000001,3.8879256654277716,224.9947530539622,161.10696681623267,47.417691173437355,0.0,0,,,,,,
77.00000000000001,3.9088770029497493,225.99468401519854,161.09521637960415,48.04160816256153,0.0,0,,,,,,
78.00000000000001,3.9295580006327335,226.9946149764349,161.08346594297564,48.665525151685706,0.0,0,,,,,,
79.00000000000001,3.9499755461159345,227.99454593767123,161.07171550634712,49.28944214080988,0.0,0,,,,,,
80.00000000000001,3.9701362671276486,228.99447689890758,161.0599650697186,49.91335912993406,0.0,0,,,,,,
81.00000000000001,3.9900465444000868,229.99440786014392,161.04821463309008,50.537276119058234,0.0,0,,,,,,
82.00000000000001,4.009712523791881,230.99433882138027,161.03646419646157,51.16119310818241,0.0,0,,,,,,
83.00000000000001,4.029140127675897,231.9942697826166,161.02471375983305,51.785110097306585,0.0,0,,,,,,
84.00000000000001,4.0483350656451345,232.99420074385296,161.01296332320453,52.40902708643076,0.0,0,,,,,,
85.00000000000001,4.06730284458515,233.9941317050893,161.001212886576,53.03294407555494,0.0,0,,,,,,
86.00000000000001,4.086048778157446,234.99406266632565,160.9894624499475,53.65686106467911,0.0,0,,,,,,
87.00000000000001,4.104577995734687,235.993993627562,160.97771201331898,54.28077805380329,0.0,0,,,,,,
88.00000000000001,4.12289545082533,236.99392458879834,160.96596157669046,54.904695042927464,0.0,0,,,,,,
89.00000000000001,4.141005929022294,237.99385555003468,160.95421114006194,55.52861203205164,0.0,0,,,,,,
90.00000000000001,4.15891405550756,238.99378651127103,160.94246070343343,56.152529021175816,0.0,0,,,,,,
91.00000000000001,4.17662430214216,239.99371747250737,160.9307102668049,56.77644601029999,0.0,0,,,,,,
92.00000000000001,4.194140994168731,240.99364843374372,160.9189598301764,57.40036299942417,0.0,0,,,,,,
93.00000000000001,4.211468316551772,241.99357939498006,160.90720939354787,58.024279988548344,0.0,0,,,,,,
94.00000000000001,4.228610319978845,242.9935103562164,160.89545895691936,58.64819697767252,0.0,0,,,,,,
95.00000000000001,4.245570926544255,243.99344131745275,160.88370852029084,59.272113966796695,0.0,0,,,,,,
96.00000000000001,4.262353935135159,244.9933722786891,160.87195808366232,59.89603095592087,0.0,0,,,,,,
96.16663922587703,4.265133663947671,245.16,160.87,60.0,359.76959398314517,0,,,,,,
97.16663922587703,4.281800330614337,245.9628667505079,160.27384148003333,60.0,358.3869302337056,0,,,,,,
98.16663922587703,4.298466997281004,246.76573350101583,159.67768296006665,60.0,357.00426648426605,0,,,,,,
99.16663922587703,4.3151336639476705,247.56860025152375,159.08152444009997,60.0,355.62160273482647,0,,,,,,
100.16663922587703,4.331800330614337,248.37146700203166,158.4853659201333,60.0,354.23893898538694,0,,,,,,
101.16663922587703,4.348466997281004,249.17433375253958,157.8892074001666,60.0,352.85627523594735,0,,,,,,
102.16663922587703,4.36513366394767,249.9772005030475,157.29304888019993,60.0,351.4736114865078,0,,,,,,
103.16663922587703,4.381800330614337,250.78006725355542,156.69689036023325,60.0,350.09094773706823,0,,,,,,
104.16663922587703,4.3984669972810035,251.58293400406333,156.10073184026658,60.0,348.70828398762865,0,,,,,,
105.16663922587703,4.41513366394767,252.38580075457125,155.5045733202999,60.0,347.3256202381891,0,,,,,,
106.16663922587703,4.431800330614337,253.18866750507917,154.90841480033322,60.0,345.94295648874953,0,,,,,,
107.16663922587703,4.448466997281003,253.99153425558708,154.31225628036654,60.0,344.56029273931,0,,,,,,
108.16663922587703,4.46513366394767,254.794401006095,153.71609776039986,60.0,343.1776289898704,0,,,,,,
109.16663922587703,4.481800330614337,255.59726775660292,153.11993924043318,60.0,341.7949652404308,0,,,,,,
110.166639225877,4.498466997281003,256.4001345071108,152.5237807204665,60.0,340.41230149099135,0,,,,,,
111.166639225877,4.51513366394767,257.2030012576187,151.92762220049983,60.0,339.02963774155177,0,,,,,,
112.166639225877,4.531800330614336,258.00586800812664,151.33146368053315,60.0,337.6469739921122,0,,,,,,
113.166639225877,4.548466997281003,258.80873475863456,150.73530516056647,60.0,336.26431024267265,0,,,,,,
114.166639225877,4.56513366394767,259.6116015091425,150.1391466405998,60.0,334.88164649323306,0,,,,,,
115.166639225877,4.581800330614336,260.4144682596504,149.5429881206331,60.0,333.49898274379353,0,,,,,,
116.166639225877,4.598466997281003,261.2173350101583,148.94682960066643,60.0,332.11631899435395,0,,,,,,
117.166639225877,4.615133663947669,262.0202017606662,148.35067108069975,60.0,330.7336552449144,0,,,,,,
118.166639225877,4.631800330614336,262.82306851117414,147.75451256073308,60.0,329.35099149547483,0,,,,,,
119.166639225877,4.648466997281003,263.62593526168206,147.1583540407664,60.0,327.96832774603524,0,,,,,,
120.166639225877,4.665133663947669,264.42880201219,146.56219552079972,60.0,326.5856639965957,0,,,,,,
121.166639225877,4.681800330614336,265.2316687626979,145.96603700083304,60.0,325.2030002471561,0,,,,,,
122.166639225877,4.6984669972810025,266.0345355132058,145.36987848086636,60.0,323.82033649771654,0,,,,,,
123.166639225877,4.715133663947669,266.8374022637137,144.77371996089968,60.0,322.437672748277,0,,,,,,
124.166639225877,4.731800330614336,267.64026901422164,144.177561440933,60.0,321.0550089988374,0,,,,,,
125.166639225877,4.748466997281002,268.44313576472956,143.58140292096633,60.0,319.6723452493979,0,,,,,,
126.166639225877,4.765133663947669,269.2460025152375,142.98524440099965,60.0,318.2896814999583,0,,,,,,
127.166639225877,4.7818003306143355,270.0488692657454,142.38908588103297,60.0,316.9070177505187,0,,,,,,
128.16663922587702,4.798466997281002,270.8517360162533,141.7929273610663,60.0,315.52435400107913,0,,,,,,
129.16663922587702,4.815133663947669,271.65460276676123,141.1967688410996,60.0,314.1416902516396,0,,,,,,
130.16663922587702,4.831800330614335,272.45746951726915,140.60061032113293,60.0,312.7590265022,0,,,,,,
131.16663922587702,4.848466997281002,273.26033626777706,140.00445180116625,60.0,311.3763627527605,0,,,,,,
132.16663922587702,4.8651336639476686,274.063203018285,139.40829328119958,60.0,309.9936990033209,0,,,,,,
133.16663922587702,4.881800330614335,274.8660697687929,138.8121347612329,60.0,308.6110352538813,0,,,,,,
134.16663922587702,4.898466997281002,275.6689365193008,138.21597624126622,60.0,307.2283715044418,0,,,,,,
135.16663922587702,4.915133663947668,276.47180326980873,137.61981772129954,60.0,305.8457077550022,0,,,,,,
136.16663922587702,4.931800330614335,277.27467002031665,137.02365920133286,60.0,304.46304400556267,0,,,,,,
137.16663922587702,4.948466997281002,278.07753677082457,136.42750068136618,60.0,303.0803802561231,0,,,,,,
138.16663922587702,4.965133663947668,278.8804035213325,135.8313421613995,60.0,301.6977165066835,0,,,,,,
139.16663922587702,4.981800330614335,279.6832702718404,135.23518364143283,60.0,300.31505275724396,0,,,,,,
139.56113772511074,4.988375305601563,280.0,135.0,60.0,300.3131097764924,0,,,,,,
140.56113772511074,5.00504197226823,280.7334936006472,134.3203036429334,60.0,300.3081845847482,0,,,,,,
141.56113772511074,5.021708638934896,281.4669872012944,133.6406072858668,60.0,300.30325939300394,0,,,,,,
142.56113772511074,5.038375305601563,282.2004808019416,132.9609109288002,60.0,300.29833420125965,0,,,,,,
143.56113772511074,5.05504197226823,282.9339744025888,132.28121457173359,60.0,300.2934090095154,0,,,,,,
144.56113772511074,5.071708638934896,283.66746800323597,131.60151821466698,60.0,300.2884838177712,0,,,,,,
145.56113772511074,5.088375305601563,284.40096160388316,130.92182185760038,60.0,300.28355862602695,0,,,,,,
146.56113772511074,5.105041972268229,285.13445520453035,130.24212550053377,60.0,300.2786334342827,0,,,,,,
147.56113772511074,5.121708638934896,285.86794880517755,129.56242914346717,60.0,300.2737082425385,0,,,,,,
148.56113772511074,5.138375305601563,286.60144240582474,128.88273278640057,60.0,300.26878305079424,0,,,,,,
149.56113772511074,5.155041972268229,287.33493600647193,128.20303642933396,60.0,300.26385785904995,0,,,,,,
150.56113772511074,5.171708638934896,288.0684296071191,127.52334007226736,60.0,300.2589326673057,0,,,,,,
151.56113772511074,5.1883753056015625,288.8019232077663,126.84364371520076,60.0,300.2540074755615,0,,,,,,
152.56113772511074,5.205041972268229,289.5354168084135,126.16394735813415,60.0,300.24908228381724,0,,,,,,
153.56113772511074,5.221708638934896,290.2689104090607,125.48425100106755,60.0,300.244157092073,0,,,,,,
154.56113772511074,5.238375305601562,291.0024040097079,124.80455464400094,60.0,300.2392319003288,0,,,,,,
155.56113772511074,5.255041972268229,291.7358976103551,124.12485828693434,60.0,300.23430670858454,0,,,,,,
156.56113772511074,5.2717086389348955,292.4693912110023,123.44516192986774,60.0,300.2293815168403,0,,,,,,
157.56113772511074,5.288375305601562,293.2028848116495,122.76546557280113,60.0,300.22445632509607,0,,,,,,
158.56113772511074,5.305041972268229,293.9363784122967,122.08576921573453,60.0,300.2195311333518,0,,,,,,
159.56113772511074,5.321708638934895,294.66987201294387,121.40607285866793,60.0,300.21460594160754,0,,,,,,
160.56113772511074,5.338375305601562,295.40336561359106,120.72637650160132,60.0,300.2096807498633,0,,,,,,
161.56113772511074,5.3550419722682285,296.13685921423826,120.04668014453472,60.0,300.2047555581191,0,,,,,,
162.56113772511074,5.371708638934895,296.87035281488545,119.36698378746811,60.0,300.19983036637484,0,,,,,,
163.56113772511074,5.388375305601562,297.60384641553264,118.68728743040151,60.0,300.1949051746306,0,,,,,,
164.56113772511074,5.405041972268228,298.33734001617984,118.00759107333491,60.0,300.18997998288637,0,,,,,,
165.56113772511074,5.421708638934895,299.07083361682703,117.3278947162683,60.0,300.1850547911421,0,,,,,,
166.56113772511074,5.438375305601562,299.8043272174742,116.6481983592017,60.0,300.18012959939784,0,,,,,,
167.56113772511074,5.455041972268228,300.5378208181214,115.9685020021351,60.0,300.1752044076536,0,,,,,,
168.56113772511074,5.471708638934895,301.2713144187686,115.28880564506849,60.0,300.1702792159094,0,,,,,,
169.56113772511074,5.488375305601561,302.0048080194158,114.60910928800189,60.0,300.16535402416514,0,,,,,,
170.56113772511074,5.505041972268228,302.738301620063,113.92941293093529,60.0,300.1604288324209,0,,,,,,
171.56113772511074,5.521708638934895,303.4717952207102,113.24971657386868,60.0,300.15550364067667,0,,,,,,
172.56113772511074,5.538375305601561,304.2052888213574,112.57002021680208,60.0,300.15057844893244,0,,,,,,
173.56113772511074,5.555041972268228,304.9387824220046,111.89032385973547,60.0,300.1456532571882,0,,,,,,
174.56113772511074,5.571708638934894,305.6722760226518,111.21062750266887,60.0,300.1407280654439,0,,,,,,
175.56113772511074,5.588375305601561,306.40576962329897,110.53093114560227,60.0,300.1358028736997,0,,,,,,
176.56113772511074,5.605041972268228,307.13926322394616,109.85123478853566,60.0,300.13087768195544,0,,,,,,
177.56113772511074,5.621708638934894,307.87275682459335,109.17153843146906,60.0,300.1259524902112,0,,,,,,
178.56113772511074,5.638375305601561,308.60625042524055,108.49184207440246,60.0,300.12102729846697,0,,,,,,
179.56113772511074,5.6550419722682275,309.33974402588774,107.81214571733585,60.0,300.11610210672274,0,,,,,,
180.56113772511074,5.671708638934894,310.07323762653493,107.13244936026925,60.0,300.1111769149785,0,,,,,,
181.56113772511074,5.688375305601561,310.8067312271821,106.45275300320264,60.0,300.1062517232342,0,,,,,,
182.56113772511074,5.705041972268227,311.5402248278293,105.77305664613604,60.0,300.10132653149,0,,,,,,
183.56113772511074,5.721708638934894,312.2737184284765,105.09336028906944,60.0,300.09640133974574,0,,,,,,
184.56113772511074,5.7383753056015605,313.0072120291237,104.41366393200283,60.0,300.0914761480015,0,,,,,,
185.56113772511074,5.755041972268227,313.7407056297709,103.73396757493623,60.0,300.08655095625727,0,,,,,,
186.56113772511074,5.771708638934894,314.4741992304181,103.05427121786963,60.0,300.08162576451303,0,,,,,,
187.56113772511074,5.78837530560156,315.2076928310653,102.37457486080302,60.0,300.0767005727688,0,,,,,,
