Distance (in),Time (s),X (in),Y (in),Velocity (in/s),Orientation (deg),Touch,Way X (in),Way Y (in),Way Velocity (in/s),Way Orientation (deg),Way Turn Radius (in),Touch this Point
0.0,0.0,151.16,169.31,12.0,0.0,0,151.16,169.31,12.0,0.0,3.0,0
1.000000000000014,0.07982600968048341,152.159885860014,169.2948914943124,13.05449048506061,0.0,0,191.53,168.7,60.0,0.0,3.0,0
2.000000000000028,0.1534543013846536,153.15977172002798,169.2797829886248,14.10898097012122,0.0,0,205.99,195.22,60.0,0.0,10.0,0
3.0000000000000417,0.22177792425511839,154.15965758004197,169.26467448293718,15.16347145518183,0.0,0,250.58,195.82,60.0,0.0,10.0,0
4.000000000000056,0.2855098760368891,155.15954344005596,169.24956597724957,16.21796194024244,0.0,0,275.29,132.55,60.0,0.0,3.0,0
5.00000000000007,0.34522845634975624,156.15942930006995,169.23445747156197,17.27245242530305,0.0,0,327.1,130.14,60.0,0.0,3.0,0
6.000000000000084,0.40140918585771634,157.15931516008393,169.21934896587436,18.326942910363663,0.0,0,333.13,193.0,60.0,0.0,3.0,0
7.000000000000099,0.45444779944800884,158.15920102009792,169.20424046018675,19.381433395424274,0.0,0,389.77,193.0,60.0,0.0,3.0,0
8.000000000000112,0.5046771500837451,159.15908688011191,169.18913195449915,20.435923880484882,0.0,0,418.09,129.54,60.0,0.0,3.0,0
9.000000000000126,0.5523798611639189,160.1589727401259,169.17402344881154,21.490414365545494,0.0,0,447.61,130.14,60.0,0.0,3.0,0
10.00000000000014,0.5977979490897231,161.1588586001399,169.15891494312393,22.544904850606105,0.0,0,446.41,168.7,60.0,0.0,3.0,0
11.000000000000155,0.6411402468800577,162.15874446015388,169.14380643743633,23.599395335666717,0.0,0,477.74,169.31,60.0,0.0,3.0,0
12.000000000000169,0.6825882054865992,163.15863032016787,169.12869793174872,24.65388582072733,0.0,0,548.24,165.69,12.0,0.0,3.0,0
13.000000000000183,0.7223004804232535,164.15851618018186,169.1135894260611,25.70837630578794,0.0,0,,,,,,
14.000000000000197,0.7604165966417433,165.15840204019585,169.0984809203735,26.762866790848552,0.0,0,,,,,,
15.000000000000211,0.7970599053528583,166.15828790020984,169.0833724146859,27.817357275909163,0.0,0,,,,,,
16.000000000000224,0.8323399908417787,167.15817376022383,169.0682639089983,28.87184776096977,0.0,0,,,,,,
17.000000000000238,0.8663546456435768,168.15805962023782,169.05315540331068,29.926338246030383,0.0,0,,,,,,
18.000000000000252,0.899191503755058,169.1579454802518,169.03804689762308,30.980828731090995,0.0,0,,,,,,
19.000000000000266,0.9309294005505656,170.1578313402658,169.02293839193547,32.035319216151606,0.0,0,,,,,,
20.00000000000028,0.961639512503477,171.1577172002798,169.00782988624786,33.08980970121222,0.0,0,,,,,,
21.000000000000295,0.991386318155355,172.15760306029378,168.99272138056025,34.14430018627283,0.0,0,,,,,,
22.00000000000031,1.020228412951893,173.15748892030777,168.97761287487265,35.19879067133344,0.0,0,,,,,,
23.000000000000323,1.0482192038252784,174.15737478032176,168.96250436918504,36.25328115639405,0.0,0,,,,,,
24.000000000000338,1.0754075042088547,175.15726064033575,168.94739586349743,37.307771641454664,0.0,0,,,,,,
25.00000000000035,1.101838046134245,176.15714650034974,168.93228735780983,38.362262126515276,0.0,0,,,,,,
26.000000000000366,1.1275519229008089,177.15703236036373,168.91717885212222,39.41675261157589,0.0,0,,,,,,
27.00000000000038,1.1525869733144523,178.15691822037772,168.9020703464346,40.4712430966365,0.0,0,,,,,,
28.000000000000394,1.1769781165128879,179.1568040803917,168.886961840747,41.52573358169711,0.0,0,,,,,,
29.00000000000041,1.2007576448116988,180.1566899404057,168.8718533350594,42.58022406675772,0.0,0,,,,,,
30.000000000000423,1.2239554807325506,181.1565758004197,168.8567448293718,43.634714551818334,0.0,0,,,,,,
31.000000000000437,1.2465994033450607,182.15646166043368,168.84163632368418,44.689205036878946,0.0,0,,,,,,
32.00000000000045,1.268715248216134,183.15634752044767,168.82652781799658,45.74369552193955,0.0,0,,,,,,
33.00000000000046,1.2903270845755945,184.15623338046166,168.81141931230897,46.79818600700016,0.0,0,,,,,,
34.000000000000476,1.3114573727440713,185.15611924047565,168.79631080662136,47.85267649206077,0.0,0,,,,,,
35.00000000000049,1.332127104404365,186.15600510048964,168.78120230093376,48.907166977121385,0.0,0,,,,,,
36.000000000000504,1.3523559279121011,187.15589096050363,168.76609379524615,49.961657462181996,0.0,0,,,,,,
37.00000000000052,1.3721622605204484,188.15577682051762,168.75098528955854,51.01614794724261,0.0,0,,,,,,
38.00000000000053,1.391563389125199,189.1556626805316,168.73587678387094,52.07063843230322,0.0,0,,,,,,
38.99591837955746,1.4104987351718583,190.15144693055717,168.75222138971853,53.120824887442964,0.0,0,,,,,,
39.991295175717966,1.4290534011999556,191.1034372598833,169.04289195789545,54.170440248044315,0.0,0,,,,,,
40.991295175717966,1.4473357104243982,191.58215021277093,169.9208634316562,55.22493073310491,0.0,0,,,,,,
41.991295175717966,1.4654175122195015,192.06086316565856,170.79883490541692,55.38351540867453,0.0,0,,,,,,
42.991295175717966,1.483447612761316,192.5395761185462,171.67680637917766,55.542100084244154,0.0,0,,,,,,
43.991295175717966,1.5014263068654203,193.01828907143383,172.5547778529384,55.700684759813775,0.0,0,,,,,,
44.991295175717966,1.5193538868328753,193.49700202432146,173.43274932669914,55.859269435383396,0.0,0,,,,,,
45.991295175717966,1.5372306424787394,193.9757149772091,174.31072080045988,56.01785411095302,0.0,0,,,,,,
46.991295175717966,1.55505686116018,194.45442793009673,175.1886922742206,56.17643878652264,0.0,0,,,,,,
47.991295175717966,1.5728328278041885,194.93314088298436,176.06666374798135,56.33502346209226,0.0,0,,,,,,
48.991295175717966,1.5905588249349059,195.411853835872,176.9446352217421,56.49360813766188,0.0,0,,,,,,
49.991295175717966,1.608235132700565,195.89056678875963,177.82260669550283,56.6521928132315,0.0,0,,,,,,
50.991295175717966,1.6258620289000574,196.36927974164726,178.70057816926357,56.81077748880112,0.0,0,,,,,,
51.991295175717966,1.643439789009128,196.8479926945349,179.5785496430243,56.96936216437074,0.0,0,,,,,,
52.991295175717966,1.6609686862062076,197.32670564742253,180.45652111678504,57.127946839940364,0.0,0,,,,,,
53.991295175717966,1.6784489913978864,197.80541860031016,181.33449259054578,57.286531515509985,0.0,0,,,,,,
54.991295175717966,1.6958809732440352,198.2841315531978,182.21246406430652,57.445116191079606,0.0,0,,,,,,
55.991295175717966,1.7132648981825807,198.76284450608543,183.09043553806725,57.60370086664923,0.0,0,,,,,,
56.991295175717966,1.73060103045394,199.24155745897306,183.968407011828,57.76228554221885,0.0,0,,,,,,
57.991295175717966,1.7478896321251214,199.7202704118607,184.84637848558873,57.92087021778847,0.0,0,,,,,,
58.991295175717966,1.765130963113493,200.19898336474833,185.72434995934947,58.07945489335809,0.0,0,,,,,,
59.991295175717966,1.7823252812102302,200.67769631763596,186.6023214331102,58.23803956892771,0.0,0,,,,,,
60.991295175717966,1.799472842103442,201.1564092705236,187.48029290687094,58.39662424449733,0.0,0,,,,,,
61.991295175717966,1.816573899400986,201.63512222341123,188.35826438063168,58.55520892006695,0.0,0,,,,,,
62.991295175717966,1.833628704652972,202.11383517629886,189.23623585439242,58.713793595636574,0.0,0,,,,,,
63.991295175717966,1.8506375073739658,202.5925481291865,190.11420732815316,58.872378271206195,0.0,0,,,,,,
65.1047454858755,1.8695221363834316,203.54674720424677,190.68803284025944,59.04895442740542,0.0,0,,,,,,
66.10432887128906,1.8864274903987535,204.12678080059283,191.50211389980123,59.20747303428601,0.0,0,,,,,,
67.10391225670263,1.9032876435223807,204.78518913855987,192.2542212092261,59.36599164116661,0.0,0,,,,,,
68.10349564211621,1.9201028368225996,205.51539361967582,192.9368399609119,59.52451024804721,0.0,0,,,,,,
69.10307902752979,1.9368733094443036,206.31009828213885,193.5431496539355,59.683028854927805,0.0,0,,,,,,
70.10266241294335,1.9535992986294013,207.16136269965605,194.06709224226358,59.841547461808396,0.0,0,,,,,,
71.10224579835692,1.9702810397369541,208.06068131955823,194.50343266474596,60.000066068688994,0.0,0,,,,,,
72.10182918377048,1.9869407446907337,208.9990684474705,194.84781115211615,60.00006456829288,0.0,0,,,,,,
73.10141256918403,2.0036004500611155,209.96714802940033,195.09678678836477,60.00006306789676,0.0,0,,,,,,
74.10141256918403,2.0202670994174152,210.96705751064167,195.1102415021738,60.000061566875296,0.0,0,,,,,,
75.10141256918403,2.0369337491906645,211.966966991883,195.12369621598285,60.00006006585383,0.0,0,,,,,,
76.10141256918403,2.0536003993808634,212.96687647312433,195.1371509297919,60.000058564832365,0.0,0,,,,,,
77.10141256918403,2.070267049988012,213.96678595436566,195.15060564360093,60.0000570638109,0.0,0,,,,,,
78.10141256918403,2.08693370101211,214.966695435607,195.16406035740997,60.000055562789434,0.0,0,,,,,,
79.10141256918403,2.1036003524531575,215.96660491684833,195.177515071219,60.00005406176797,0.0,0,,,,,,
80.10141256918403,2.1202670043111547,216.96651439808966,195.19096978502805,60.000052560746504,0.0,0,,,,,,
81.10141256918403,2.1369336565861015,217.966423879331,195.20442449883708,60.00005105972504,0.0,0,,,,,,
82.10141256918403,2.1536003092779983,218.96633336057232,195.21787921264612,60.00004955870357,0.0,0,,,,,,
83.10141256918403,2.1702669623868447,219.96624284181365,195.23133392645516,60.00004805768211,0.0,0,,,,,,
84.10141256918403,2.1869336159126407,220.96615232305498,195.2447886402642,60.00004655666064,0.0,0,,,,,,
85.10141256918403,2.2036002698553867,221.96606180429632,195.25824335407324,60.00004505563918,0.0,0,,,,,,
86.10141256918403,2.2202669242150823,222.96597128553765,195.27169806788228,60.00004355461771,0.0,0,,,,,,
87.10141256918403,2.236933578991728,223.96588076677898,195.28515278169132,60.000042053596246,0.0,0,,,,,,
88.10141256918403,2.253600234185323,224.9657902480203,195.29860749550036,60.00004055257478,0.0,0,,,,,,
89.10141256918403,2.2702668897958684,225.96569972926164,195.3120622093094,60.000039051553316,0.0,0,,,,,,
90.10141256918403,2.2869335458233633,226.96560921050298,195.32551692311844,60.00003755053185,0.0,0,,,,,,
91.10141256918403,2.303600202267808,227.9655186917443,195.33897163692748,60.000036049510385,0.0,0,,,,,,
92.10141256918403,2.320266859129203,228.96542817298564,195.35242635073652,60.00003454848892,0.0,0,,,,,,
93.10141256918403,2.3369335164075475,229.96533765422697,195.36588106454556,60.000033047467454,0.0,0,,,,,,
94.10141256918403,2.353600174102842,230.9652471354683,195.3793357783546,60.00003154644599,0.0,0,,,,,,
95.10141256918403,2.3702668322150866,231.96515661670963,195.39279049216364,60.00003004542452,0.0,0,,,,,,
96.10141256918403,2.386933490744281,232.96506609795097,195.40624520597268,60.00002854440306,0.0,0,,,,,,
97.10141256918403,2.403600149690426,233.9649755791923,195.41969991978172,60.00002704338159,0.0,0,,,,,,
98.10141256918403,2.4202668090535204,234.96488506043363,195.43315463359076,60.00002554236013,0.0,0,,,,,,
99.10141256918403,2.436933468833565,235.96479454167496,195.4466093473998,60.00002404133866,0.0,0,,,,,,
100.10141256918403,2.45360012903056,236.9647040229163,195.46006406120884,60.0000225403172,0.0,0,,,,,,
101.10141256918403,2.4702667896445045,237.96461350415763,195.47351877501788,60.00002103929573,0.0,0,,,,,,
102.10141256918403,2.4869334506753993,238.96452298539896,195.48697348882692,60.000019538274266,0.0,0,,,,,,
103.10141256918403,2.5036001121232445,239.9644324666403,195.50042820263596,60.0000180372528,0.0,0,,,,,,
104.10141256918403,2.5202667739880398,240.96434194788162,195.513882916445,60.000016536231335,0.0,0,,,,,,
105.10141256918403,2.536933436269785,241.96425142912295,195.52733763025404,60.00001503520987,0.0,0,,,,,,
106.10141256918403,2.553600098968481,242.96416091036428,195.54079234406308,60.000013534188405,0.0,0,,,,,,
107.12139756905621,2.570599845348612,243.96718413494406,195.72603221805852,60.000012003169026,0.0,0,,,,,,
108.12098095446979,2.587259565314316,244.96444895690385,195.65798944271566,60.00001050277291,0.0,0,,,,,,
109.12056433988333,2.6039192856966222,245.94993866589846,195.4907262433545,60.00000900237679,0.0,0,,,,,,
110.12014772529693,2.6205790064955323,246.91380657451526,195.22591385857316,60.000007501980676,0.0,0,,,,,,
111.11973111071049,2.6372387277110447,247.84642203322366,194.86619820618512,60.00000600158456,0.0,0,,,,,,
112.11931449612406,2.6538984493431603,248.73846665664195,194.41517344608278,60.00000450118844,0.0,0,,,,,,
113.11889788153762,2.6705581713918787,249.58102742976368,193.87734606858015,60.000003000792326,0.0,0,,,,,,
114.11848126695118,2.6872178938572002,250.36568576385739,193.25808986705115,60.00000150039621,0.0,0,,,,,,
115.11806465236475,2.703877616739125,251.08460161222237,192.56359224476256,60.00000000000009,0.0,0,,,,,,
116.11764803777831,2.720537339829351,251.73059180534375,191.80079239238592,60.00000000000009,0.0,0,,,,,,
117.11723142319188,2.737197062919577,252.2972018227478,190.977311953898,60.00000000000009,0.0,0,,,,,,
118.11723142319187,2.753863729586244,252.66099047852174,190.0458304382842,60.00000000000009,0.0,0,,,,,,
119.11723142319185,2.7705303962529104,253.02477913429567,189.11434892267042,60.00000000000009,0.0,0,,,,,,
120.11723142319184,2.787197062919577,253.3885677900696,188.18286740705662,60.00000000000009,0.0,0,,,,,,
121.11723142319183,2.8038637295862436,253.75235644584353,187.25138589144282,60.00000000000009,0.0,0,,,,,,
122.11723142319181,2.8205303962529102,254.11614510161746,186.31990437582903,60.00000000000009,0.0,0,,,,,,
123.1172314231918,2.837197062919577,254.4799337573914,185.38842286021523,60.00000000000009,0.0,0,,,,,,
124.11723142319178,2.8538637295862435,254.84372241316532,184.45694134460143,60.00000000000009,0.0,0,,,,,,
125.11723142319177,2.87053039625291,255.20751106893925,183.52545982898764,60.00000000000009,0.0,0,,,,,,
126.11723142319175,2.8871970629195767,255.57129972471319,182.59397831337384,60.00000000000009,0.0,0,,,,,,
127.11723142319174,2.9038637295862433,255.93508838048712,181.66249679776004,60.00000000000009,0.0,0,,,,,,
128.11723142319173,2.92053039625291,256.29887703626105,180.73101528214625,60.00000000000009,0.0,0,,,,,,
129.11723142319173,2.9371970629195765,256.662665692035,179.79953376653245,60.00000000000009,0.0,0,,,,,,
130.11723142319173,2.953863729586243,257.0264543478089,178.86805225091865,60.00000000000009,0.0,0,,,,,,
131.11723142319173,2.9705303962529097,257.39024300358284,177.93657073530485,60.00000000000009,0.0,0,,,,,,
132.11723142319173,2.9871970629195763,257.75403165935677,177.00508921969106,60.00000000000009,0.0,0,,,,,,
133.11723142319173,3.003863729586243,258.1178203151307,176.07360770407726,60.00000000000009,0.0,0,,,,,,
134.11723142319173,3.0205303962529095,258.48160897090463,175.14212618846346,60.00000000000009,0.0,0,,,,,,
135.11723142319173,3.037197062919576,258.84539762667856,174.21064467284967,60.00000000000009,0.0,0,,,,,,
136.11723142319173,3.0538637295862427,259.2091862824525,173.27916315723587,60.00000000000009,0.0,0,,,,,,
137.11723142319173,3.0705303962529094,259.5729749382264,172.34768164162207,60.00000000000009,0.0,0,,,,,,
138.11723142319173,3.087197062919576,259.93676359400035,171.41620012600828,60.00000000000009,0.0,0,,,,,,
139.11723142319173,3.1038637295862426,260.3005522497743,170.48471861039448,60.00000000000009,0.0,0,,,,,,
140.11723142319173,3.120530396252909,260.6643409055482,169.55323709478068,60.00000000000009,0.0,0,,,,,,
141.11723142319173,3.137197062919576,261.02812956132215,168.6217555791669,60.00000000000009,0.0,0,,,,,,
142.11723142319173,3.1538637295862424,261.3919182170961,167.6902740635531,60.00000000000009,0.0,0,,,,,,
143.11723142319173,3.170530396252909,261.75570687287,166.7587925479393,60.00000000000009,0.0,0,,,,,,
144.11723142319173,3.1871970629195756,262.11949552864394,165.8273110323255,60.00000000000009,0.0,0,,,,,,
145.11723142319173,3.203863729586242,262.48328418441787,164.8958295167117,60.00000000000009,0.0,0,,,,,,
146.11723142319173,3.220530396252909,262.8470728401918,163.9643480010979,60.00000000000009,0.0,0,,,,,,
147.11723142319173,3.2371970629195754,263.21086149596573,163.0328664854841,60.00000000000009,0.0,0,,,,,,
148.11723142319173,3.253863729586242,263.57465015173966,162.1013849698703,60.00000000000009,0.0,0,,,,,,
149.11723142319173,3.2705303962529086,263.9384388075136,161.1699034542565,60.00000000000009,0.0,0,,,,,,
150.11723142319173,3.2871970629195753,264.3022274632875,160.23842193864272,60.00000000000009,0.0,0,,,,,,
151.11723142319173,3.303863729586242,264.66601611906145,159.30694042302892,60.00000000000009,0.0,0,,,,,,
152.11723142319173,3.3205303962529085,265.0298047748354,158.37545890741512,60.00000000000009,0.0,0,,,,,,
153.11723142319173,3.337197062919575,265.3935934306093,157.44397739180133,60.00000000000009,0.0,0,,,,,,
154.11723142319173,3.3538637295862417,265.75738208638325,156.51249587618753,60.00000000000009,0.0,0,,,,,,
155.11723142319173,3.3705303962529083,266.1211707421572,155.58101436057373,60.00000000000009,0.0,0,,,,,,
156.11723142319173,3.387197062919575,266.4849593979311,154.64953284495994,60.00000000000009,0.0,0,,,,,,
157.11723142319173,3.4038637295862415,266.84874805370504,153.71805132934614,60.00000000000009,0.0,0,,,,,,
158.11723142319173,3.420530396252908,267.21253670947897,152.78656981373234,60.00000000000009,0.0,0,,,,,,
159.11723142319173,3.4371970629195747,267.5763253652529,151.85508829811855,60.00000000000009,0.0,0,,,,,,
160.11723142319173,3.4538637295862413,267.94011402102683,150.92360678250475,60.00000000000009,0.0,0,,,,,,
161.11723142319173,3.470530396252908,268.30390267680076,149.99212526689095,60.00000000000009,0.0,0,,,,,,
162.11723142319173,3.4871970629195745,268.6676913325747,149.06064375127715,60.00000000000009,0.0,0,,,,,,
163.11723142319173,3.503863729586241,269.0314799883486,148.12916223566336,60.00000000000009,0.0,0,,,,,,
164.11723142319173,3.5205303962529078,269.39526864412255,147.19768072004956,60.00000000000009,0.0,0,,,,,,
165.11723142319173,3.5371970629195744,269.7590572998965,146.26619920443576,60.00000000000009,0.0,0,,,,,,
166.11723142319173,3.553863729586241,270.1228459556704,145.33471768882197,60.00000000000009,0.0,0,,,,,,
167.11723142319173,3.5705303962529076,270.48663461144434,144.40323617320817,60.00000000000009,0.0,0,,,,,,
168.11723142319173,3.587197062919574,270.8504232672183,143.47175465759437,60.00000000000009,0.0,0,,,,,,
169.11723142319173,3.603863729586241,271.2142119229922,142.54027314198058,60.00000000000009,0.0,0,,,,,,
170.11723142319173,3.6205303962529074,271.57800057876614,141.60879162636678,60.00000000000009,0.0,0,,,,,,
171.11723142319173,3.637197062919574,271.94178923454007,140.67731011075298,60.00000000000009,0.0,0,,,,,,
172.11723142319173,3.6538637295862406,272.305577890314,139.7458285951392,60.00000000000009,0.0,0,,,,,,
173.11723142319173,3.6705303962529072,272.66936654608793,138.8143470795254,60.00000000000009,0.0,0,,,,,,
174.11723142319173,3.687197062919574,273.03315520186186,137.8828655639116,60.00000000000009,0.0,0,,,,,,
175.11723142319173,3.7038637295862404,273.3969438576358,136.9513840482978,60.00000000000009,0.0,0,,,,,,
176.11723142319173,3.720530396252907,273.7607325134097,136.019902532684,60.00000000000009,0.0,0,,,,,,
177.11723142319173,3.7371970629195737,274.12452116918365,135.0884210170702,60.00000000000009,0.0,0,,,,,,
178.12263709650088,3.753953824141393,274.6398828242464,134.22514647649044,60.00000000000009,0.0,0,,,,,,
179.11801389266134,3.770543437410734,275.1932711255632,133.39777935465128,60.00000000000009,0.0,0,,,,,,
180.11339068882188,3.787133050680076,275.9869093794711,132.7970187631768,60.00000000000009,0.0,0,,,,,,
181.11339068882188,3.8037997173467426,276.9858292574394,132.75055288967934,60.00000000000009,0.0,0,,,,,,
182.11339068882188,3.820466384013409,277.98474913540764,132.7040870161819,60.00000000000009,0.0,0,,,,,,
183.11339068882188,3.837133050680076,278.9836690133759,132.65762114268443,60.00000000000009,0.0,0,,,,,,
184.11339068882188,3.8537997173467424,279.98258889134416,132.61115526918698,60.00000000000009,0.0,0,,,,,,
185.11339068882188,3.870466384013409,280.9815087693124,132.56468939568953,60.00000000000009,0.0,0,,,,,,
