Distance (in),Time (s),X (in),Y (in),Velocity (in/s),Orientation (deg),Touch,Way X (in),Way Y (in),Way Velocity (in/s),Way Orientation (deg),Way Turn Radius (in),Touch this Point
0.0,0.0,509.2,26.0,12.0,180.0,0,509.2,26.0,12.0,180.0,6.0,0.0
1.0,0.08054516696475718,508.2,26.0,12.83078843048531,180.0,0,400.0,26.0,180.0,180.0,6.0,0
2.0,0.1560386149070978,507.2,26.0,13.66157686097062,180.0,0,388.94,26.0,36.0,180.0,3.0,0
3.0,0.22707662404883439,506.2,26.0,14.492365291455929,180.0,0,352.56,26.0,36.0,180.0,3.0,0
4.0,0.29415578504218587,505.2,26.0,15.323153721941239,180.0,0,,,,,,
5.0,0.3576940481647577,504.2,26.0,16.15394215242655,180.0,0,,,,,,
6.0,0.4180464954692401,503.2,26.0,16.984730582911858,180.0,0,,,,,,
7.0,0.4755173476384189,502.2,26.0,17.815519013397168,180.0,0,,,,,,
8.0,0.5303692350594534,501.2,26.0,18.646307443882478,180.0,0,,,,,,
9.0,0.5828304485378044,500.2,26.0,19.477095874367787,180.0,0,,,,,,
10.0,0.6331006759198597,499.2,26.0,20.307884304853097,180.0,0,,,,,,
11.0,0.6813555888203586,498.2,26.0,21.138672735338407,180.0,0,,,,,,
12.0,0.7277505453866897,497.2,26.0,21.969461165823716,180.0,0,,,,,,
13.0,0.7724236059437761,496.2,26.0,22.800249596309026,180.0,0,,,,,,
14.0,0.8154980090539073,495.2,26.0,23.631038026794336,180.0,0,,,,,,
15.0,0.8570842198453711,494.2,26.0,24.461826457279646,180.0,0,,,,,,
16.0,0.8972816363157943,493.2,26.0,25.292614887764955,180.0,0,,,,,,
17.0,0.9361800199281997,492.2,26.0,26.123403318250265,180.0,0,,,,,,
18.0,0.9738607022853397,491.2,26.0,26.954191748735575,180.0,0,,,,,,
19.0,1.0103976086644177,490.2,26.0,27.784980179220884,180.0,0,,,,,,
20.0,1.045858130784164,489.2,26.0,28.615768609706194,180.0,0,,,,,,
21.0,1.0803038746914875,488.2,26.0,29.446557040191504,180.0,0,,,,,,
22.0,1.1137913046134698,487.2,26.0,30.277345470676813,180.0,0,,,,,,
23.0,1.1463722996707066,486.2,26.0,31.108133901162123,180.0,0,,,,,,
24.0,1.1780946372310004,485.2,26.0,31.938922331647433,180.0,0,,,,,,
25.0,1.2090024142056965,484.2,26.0,32.769710762132746,180.0,0,,,,,,
26.0,1.2391364156102957,483.2,26.0,33.60049919261806,180.0,0,,,,,,
27.0,1.2685344381172956,482.2,26.0,34.43128762310337,180.0,0,,,,,,
28.0,1.297231575039514,481.2,26.0,35.262076053588686,180.0,0,,,,,,
29.0,1.325260468132689,480.2,26.0,36.092864484074,180.0,0,,,,,,
30.0,1.3526515307477547,479.2,26.0,36.92365291455931,180.0,0,,,,,,
31.0,1.3794331461575882,478.2,26.0,37.754441345044626,180.0,0,,,,,,
32.0,1.405631844300276,477.2,26.0,38.58522977552994,180.0,0,,,,,,
33.0,1.431272459697522,476.2,26.0,39.41601820601525,180.0,0,,,,,,
34.0,1.4563782729040429,475.2,26.0,40.246806636500565,180.0,0,,,,,,
35.0,1.4809711375068728,474.2,26.0,41.07759506698588,180.0,0,,,,,,
36.0,1.5050715944105237,473.2,26.0,41.90838349747119,180.0,0,,,,,,
37.0,1.5286989749054272,472.2,26.0,42.739171927956505,180.0,0,,,,,,
38.0,1.551871493815285,471.2,26.0,43.56996035844182,180.0,0,,,,,,
39.0,1.57460633384766,470.2,26.0,44.40074878892713,180.0,0,,,,,,
40.0,1.5969197221262308,469.2,26.0,45.231537219412445,180.0,0,,,,,,
41.0,1.6188269997584968,468.2,26.0,46.06232564989776,180.0,0,,,,,,
42.0,1.6403426851858713,467.2,26.0,46.89311408038307,180.0,0,,,,,,
43.0,1.6614805319712975,466.2,26.0,47.723902510868385,180.0,0,,,,,,
44.0,1.682253581600367,465.2,26.0,48.5546909413537,180.0,0,,,,,,
45.0,1.7026742118035247,464.2,26.0,49.38547937183901,180.0,0,,,,,,
46.0,1.72275418084767,463.2,26.0,50.216267802324325,180.0,0,,,,,,
47.0,1.7425046681939682,462.2,26.0,51.04705623280964,180.0,0,,,,,,
48.0,1.7619363118738476,461.2,26.0,51.87784466329495,180.0,0,,,,,,
49.0,1.781059242896015,460.2,26.0,52.708633093780264,180.0,0,,,,,,
50.0,1.7998831169630731,459.2,26.0,53.53942152426558,180.0,0,,,,,,
51.0,1.818417143746298,458.2,26.0,54.37020995475089,180.0,0,,,,,,
52.0,1.836670113940751,457.2,26.0,55.200998385236204,180.0,0,,,,,,
53.0,1.8546504242996684,456.2,26.0,56.03178681572152,180.0,0,,,,,,
54.0,1.8723661008265697,455.2,26.0,56.86257524620683,180.0,0,,,,,,
55.0,1.8898248202854193,454.2,26.0,57.693363676692144,180.0,0,,,,,,
56.0,1.9070339301731183,453.2,26.0,58.52415210717746,180.0,0,,,,,,
57.0,1.9240004672843753,452.2,26.0,59.35494053766277,180.0,0,,,,,,
58.0,1.9407311749863494,451.2,26.0,60.185728968148084,180.0,0,,,,,,
59.0,1.95723251930919,450.2,26.0,61.0165173986334,180.0,0,,,,,,
60.0,1.9735107039485578,449.2,26.0,61.84730582911871,180.0,0,,,,,,
61.0,1.989571684267232,448.2,26.0,62.67809425960402,180.0,0,,,,,,
62.0,2.0054211803748796,447.2,26.0,63.50888269008934,180.0,0,,,,,,
63.0,2.0210646893578743,446.2,26.0,64.33967112057465,180.0,0,,,,,,
64.0,2.0365074967245884,445.2,26.0,65.17045955105996,180.0,0,,,,,,
65.0,2.0517546871257872,444.2,26.0,66.00124798154528,180.0,0,,,,,,
66.0,2.0668111544045313,443.2,26.0,66.83203641203059,180.0,0,,,,,,
67.0,2.0816816110252847,442.2,26.0,67.6628248425159,180.0,0,,,,,,
68.0,2.096370596927686,441.2,26.0,68.49361327300122,180.0,0,,,,,,
69.0,2.1108824878465993,440.2,26.0,69.32440170348653,180.0,0,,,,,,
70.0,2.125221503136597,439.2,26.0,70.15519013397184,180.0,0,,,,,,
71.0,2.1393917131358733,438.2,26.0,70.98597856445716,180.0,0,,,,,,
72.0,2.1533970461017446,437.2,26.0,71.81676699494247,180.0,0,,,,,,
73.0,2.167241294747305,436.2,26.0,72.64755542542778,180.0,0,,,,,,
74.0,2.180928122406441,435.2,26.0,73.4783438559131,180.0,0,,,,,,
75.0,2.194461068852283,434.2,26.0,74.30913228639841,180.0,0,,,,,,
76.0,2.2078435557922043,433.2,26.0,75.13992071688372,180.0,0,,,,,,
77.0,2.221078892060716,432.2,26.0,75.97070914736904,180.0,0,,,,,,
78.0,2.2341702785299655,431.2,26.0,76.80149757785435,180.0,0,,,,,,
79.0,2.247120812756071,430.2,26.0,77.63228600833966,180.0,0,,,,,,
80.0,2.259933493378164,429.2,26.0,78.46307443882498,180.0,0,,,,,,
81.0,2.272611224285766,428.2,26.0,79.29386286931029,180.0,0,,,,,,
82.0,2.28515681856899,427.2,26.0,80.1246512997956,180.0,0,,,,,,
83.0,2.2975730022650036,426.2,26.0,80.95543973028092,180.0,0,,,,,,
84.0,2.309862417913238,425.2,26.0,81.78622816076623,180.0,0,,,,,,
85.0,2.3220276279309404,424.2,26.0,82.61701659125154,180.0,0,,,,,,
86.0,2.3340711178198523,423.2,26.0,83.44780502173685,180.0,0,,,,,,
87.0,2.345995299214056,422.2,26.0,84.27859345222217,180.0,0,,,,,,
88.0,2.357802512778333,421.2,26.0,85.10938188270748,180.0,0,,,,,,
89.0,2.3694950309657496,420.2,26.0,85.9401703131928,180.0,0,,,,,,
90.0,2.381075060642595,419.2,26.0,86.77095874367811,180.0,0,,,,,,
91.0,2.3925447455882556,418.2,26.0,87.60174717416342,180.0,0,,,,,,
92.0,2.40390616887711,417.2,26.0,88.43253560464873,180.0,0,,,,,,
93.0,2.41516135514906,416.2,26.0,89.26332403513405,180.0,0,,,,,,
94.0,2.42631227277489,415.2,26.0,90.09411246561936,180.0,0,,,,,,
95.0,2.437360835922251,414.2,26.0,90.92490089610467,180.0,0,,,,,,
96.0,2.4483089065276826,413.2,26.0,91.75568932658999,180.0,0,,,,,,
97.0,2.459158296179765,412.2,26.0,92.5864777570753,180.0,0,,,,,,
98.0,2.469910767918158,411.2,26.0,93.41726618756061,180.0,0,,,,,,
99.0,2.4805680379529966,410.2,26.0,94.24805461804593,180.0,0,,,,,,
100.0,2.4911317773088393,409.2,26.0,95.07884304853124,180.0,0,,,,,,
101.0,2.501603613397103,408.2,26.0,95.90963147901655,180.0,0,,,,,,
102.0,2.511985131520691,407.2,26.0,96.74041990950187,180.0,0,,,,,,
103.0,2.5222778763142863,406.2,26.0,97.57120833998718,180.0,0,,,,,,
104.0,2.5324833531235913,405.2,26.0,98.4019967704725,180.0,0,,,,,,
105.0,2.5426030293265844,404.2,26.0,99.2327852009578,180.0,0,,,,,,
106.0,2.5526383355997004,403.2,26.0,100.06357363144312,180.0,0,,,,,,
107.0,2.562590667131667,402.2,26.0,100.89436206192843,180.0,0,,,,,,
108.0,2.572461384787567,401.2,26.0,101.72515049241375,180.0,0,,,,,,
109.0,2.582251816225564,400.2,26.0,102.55593892289906,180.0,0,,,,,,
109.19999999999999,2.5842003929398896,400.0,26.0,102.72209660899611,180.0,0,,,,,,
110.19999999999999,2.5942299070959725,399.0,26.0,96.68935731342684,180.0,0,,,,,,
111.19999999999999,2.604905343258737,398.0,26.0,90.65661801785757,180.0,0,,,,,,
112.19999999999999,2.616315625846908,397.0,26.0,84.6238787222883,180.0,0,,,,,,
113.19999999999999,2.6285694001789617,396.0,26.0,78.59113942671902,180.0,0,,,,,,
114.19999999999999,2.641801329338986,395.0,26.0,72.55840013114975,180.0,0,,,,,,
115.19999999999999,2.656181122293683,394.0,26.0,66.52566083558048,180.0,0,,,,,,
116.19999999999999,2.6719268499076634,393.0,26.0,60.49292154001122,180.0,0,,,,,,
117.19999999999999,2.6893252492040425,392.0,26.0,54.46018224444195,180.0,0,,,,,,
118.19999999999999,2.708763932877052,391.0,26.0,48.42744294887269,180.0,0,,,,,,
119.19999999999999,2.7307849935414787,390.0,26.0,42.394703653303424,180.0,0,,,,,,
120.19999999999999,2.7561796686910127,389.0,26.0,36.36196435773416,180.0,0,,,,,,
120.25999999999999,2.757837998465019,388.94,26.0,35.99999999999999,180.0,0,,,,,,
121.25999999999999,2.7856157762427967,387.94,26.0,35.99999999999999,180.0,0,,,,,,
122.25999999999999,2.8133935540205743,386.94,26.0,35.99999999999999,180.0,0,,,,,,
123.25999999999999,2.841171331798352,385.94,26.0,35.99999999999999,180.0,0,,,,,,
124.25999999999999,2.8689491095761297,384.94,26.0,35.99999999999999,180.0,0,,,,,,
125.25999999999999,2.8967268873539074,383.94,26.0,35.99999999999999,180.0,0,,,,,,
126.25999999999999,2.924504665131685,382.94,26.0,35.99999999999999,180.0,0,,,,,,
127.25999999999999,2.9522824429094627,381.94,26.0,35.99999999999999,180.0,0,,,,,,
128.26,2.9800602206872404,380.94,26.0,35.99999999999999,180.0,0,,,,,,
129.26,3.007837998465018,379.94,26.0,35.99999999999999,180.0,0,,,,,,
130.26,3.0356157762427958,378.94,26.0,35.99999999999999,180.0,0,,,,,,
131.26,3.0633935540205735,377.94,26.0,35.99999999999999,180.0,0,,,,,,
132.26,3.091171331798351,376.94,26.0,35.99999999999999,180.0,0,,,,,,
133.26,3.118949109576129,375.94,26.0,35.99999999999999,180.0,0,,,,,,
134.26,3.1467268873539065,374.94,26.0,35.99999999999999,180.0,0,,,,,,
135.26,3.174504665131684,373.94,26.0,35.99999999999999,180.0,0,,,,,,
136.26,3.202282442909462,372.94,26.0,35.99999999999999,180.0,0,,,,,,
137.26,3.2300602206872395,371.94,26.0,35.99999999999999,180.0,0,,,,,,
138.26,3.257837998465017,370.94,26.0,35.99999999999999,180.0,0,,,,,,
139.26,3.285615776242795,369.94,26.0,35.99999999999999,180.0,0,,,,,,
140.26,3.3133935540205726,368.94,26.0,35.99999999999999,180.0,0,,,,,,
141.26,3.3411713317983502,367.94,26.0,35.99999999999999,180.0,0,,,,,,
142.26,3.368949109576128,366.94,26.0,35.99999999999999,180.0,0,,,,,,
143.26,3.3967268873539056,365.94,26.0,35.99999999999999,180.0,0,,,,,,
144.26,3.4245046651316833,364.94,26.0,35.99999999999999,180.0,0,,,,,,
145.26,3.452282442909461,363.94,26.0,35.99999999999999,180.0,0,,,,,,
146.26,3.4800602206872386,362.94,26.0,35.99999999999999,180.0,0,,,,,,
147.26,3.5078379984650163,361.94,26.0,35.99999999999999,180.0,0,,,,,,
148.26,3.535615776242794,360.94,26.0,35.99999999999999,180.0,0,,,,,,
149.26,3.5633935540205717,359.94,26.0,35.99999999999999,180.0,0,,,,,,
150.26,3.5911713317983494,358.94,26.0,35.99999999999999,180.0,0,,,,,,
151.26,3.618949109576127,357.94,26.0,35.99999999999999,180.0,0,,,,,,
152.26,3.6467268873539047,356.94,26.0,35.99999999999999,180.0,0,,,,,,
153.26,3.6745046651316824,355.94,26.0,35.99999999999999,180.0,0,,,,,,
154.26,3.70228244290946,354.94,26.0,35.99999999999999,180.0,0,,,,,,
155.26,3.7300602206872377,353.94,26.0,35.99999999999999,180.0,0,,,,,,
156.26,3.7578379984650154,352.94,26.0,35.99999999999999,180.0,0,,,,,,
156.64,3.768393554020571,352.56,26.0,35.99999999999999,180.0,0,,,,,,
