Distance (in),Time (s),X (in),Y (in),Velocity (in/s),Orientation (deg),Touch,Way X (in),Way Y (in),Way Velocity (in/s),Way Orientation (deg),Way Turn Radius (in),Touch this Point
0.0,0.0,387.0,295.0,24.0,205.0,0,387.0,295.0,24.0,205.0,6.0,0.0
1.0,0.040743292822792584,388.0,295.0,25.087834130116292,204.3243056091615,0,423.55,295.0,180.0,180.0,24.0,0
2.0,0.07975740435912276,389.0,295.0,26.175668260232584,203.64861121832303,0,508.0,150.0,180.0,0.0,24.0,0
3.0,0.11718313487947915,390.0,295.0,27.263502390348876,202.97291682748454,0,510.0,125.0,0.0,0.0,6.0,0.0
4.0,0.15314476021489137,391.0,295.0,28.351336520465168,202.29722243664605,0,,,,,,
5.0,0.18775252017243005,392.0,295.0,29.43917065058146,201.62152804580757,0,,,,,,
6.0,0.22110465553233782,393.0,295.0,30.52700478069775,200.94583365496908,0,,,,,,
7.0,0.25328908845532155,394.0,295.0,31.614838910814044,200.2701392641306,0,,,,,,
8.0,0.28438481867418547,395.0,295.0,32.702673040930335,199.5944448732921,0,,,,,,
9.0,0.3144630912673161,396.0,295.0,33.79050717104663,198.91875048245362,0,,,,,,
10.0,0.3435883794365127,397.0,295.0,34.87834130116292,198.24305609161513,0,,,,,,
11.0,0.3718192163769831,398.0,295.0,35.96617543127921,197.56736170077664,0,,,,,,
12.0,0.39920890321769215,399.0,295.0,37.0540095613955,196.89166730993816,0,,,,,,
13.0,0.42580611454626593,400.0,295.0,38.141843691511795,196.21597291909967,0,,,,,,
14.0,0.45165541879783533,401.0,295.0,39.22967782162809,195.54027852826118,0,,,,,,
15.0,0.47679772747898347,402.0,295.0,40.31751195174438,194.8645841374227,0,,,,,,
16.0,0.5012706845943303,403.0,295.0,41.40534608186067,194.1888897465842,0,,,,,,
17.0,0.5251090055797956,404.0,295.0,42.49318021197696,193.51319535574572,0,,,,,,
18.0,0.5483447734003546,405.0,295.0,43.581014342093255,192.83750096490724,0,,,,,,
19.0,0.57100769814856,406.0,295.0,44.66884847220955,192.16180657406875,0,,,,,,
20.0,0.593125345412931,407.0,295.0,45.75668260232584,191.48611218323026,0,,,,,,
21.0,0.6147233378187279,408.0,295.0,46.84451673244213,190.81041779239177,0,,,,,,
22.0,0.63582553343619,409.0,295.0,47.93235086255842,190.1347234015533,0,,,,,,
22.99998789557445,0.6564539372745581,409.99998710296353,294.99874095193843,49.02017182506748,189.45903718960724,0,,,,,,
23.999915559181314,0.6766283917992324,410.99943196725667,294.96767174396086,50.10792726518647,188.78339167606384,0,,,,,,
24.999843222788158,0.6963695967552672,411.99671520760825,294.89499801445635,51.19568270530544,188.10774616252047,0,,,,,,
25.999770886394987,0.7156957691345096,412.9901056799804,294.78084591484156,52.28343814542439,187.4321006489771,0,,,,,,
26.999698550001856,0.7346240006227991,413.9778789976353,294.6254135971746,53.37119358554339,186.7564551354337,0,,,,,,
27.999626213608746,0.7531703484137363,414.958320524429,294.42897087019094,54.458949025662406,186.0808096218903,0,,,,,,
28.999553877215575,0.7713499170426269,415.9297283511796,294.19185873095336,55.54670446578136,185.40516410834692,0,,,,,,
29.999481540822426,0.7891769322854686,416.8904162499436,293.9144887729285,56.634459905900336,184.72951859480355,0,,,,,,
30.999409204429313,0.8066648080286924,417.8387166010709,293.5973424715184,57.722215346019354,184.05387308126015,0,,,,,,
31.99933686803617,0.8238262068970335,418.7729832879594,293.2409703482866,58.80997078613834,183.37822756771678,0,,,,,,
32.99926453164301,0.8406730953258844,419.6915945544826,292.84599101533,59.8977262262573,182.7025820541734,0,,,,,,
33.99919219524987,0.8572167936780158,420.59295582013146,292.4130901014546,60.98548166637629,182.02693654063003,0,,,,,,
34.999119858856716,0.8734680219303171,421.4755024479824,291.94301906201997,62.07323710649526,181.35129102708666,0,,,,,,
35.999047522463584,0.8894369413922981,422.3377024606883,291.43659387451817,63.16099254661426,180.67564551354326,0,,,,,,
36.99897518607042,0.9052097874546543,423.1780591997763,290.894693622151,63.63003294792652,181.74935271216506,0,,,,,,
37.99890284967731,0.9208667930126597,423.9951139236376,290.31825896786455,64.09907334923882,182.82305991078692,0,,,,,,
38.99883051328413,0.9364096471955419,424.7874483396981,289.70829052149026,64.56811375055108,183.89676710940873,0,,,,,,
39.998758176890995,0.9518400024548629,425.55368706637637,289.06584710282624,65.03715415186336,184.97047430803056,0,,,,,,
40.99868584049784,0.9671594756187721,426.292500020553,288.39204390367456,65.50619455317563,186.0441815066524,0,,,,,,
41.99861350410469,0.9823696489086596,427.00260472640866,287.6880505520242,65.9752349544879,187.11788870527423,0,,,,,,
42.99854116771157,0.9974720709197943,427.68276854162264,286.9550890817409,66.44427535580019,188.1915959038961,0,,,,,,
43.99846883131839,1.01246825756747,428.33181079706713,286.1944318112874,66.91331575711244,189.2653031025179,0,,,,,,
44.99839649492526,1.0273596930001136,428.94860484628373,285.4073991351568,67.38235615842473,190.33901030113975,0,,,,,,
45.998324158532114,1.0421478304807141,429.5320800211836,284.5953572318527,67.851396559737,191.41271749976158,0,,,,,,
46.998324158532085,1.0568351520062558,430.0353580678844,283.73123269932915,68.32047089219459,192.48650237210808,0,,,,,,
47.99832415853206,1.071421978385851,430.53863611458513,282.8671081668056,68.78954522465219,193.56028724445457,0,,,,,,
48.99832415853203,1.0859096755107038,431.0419141612859,282.0029836342821,69.25861955710978,194.63407211680106,0,,,,,,
49.998324158532,1.1002995816129852,431.54519220798664,281.13885910175856,69.72769388956738,195.70785698914756,0,,,,,,
50.99832415853197,1.1145930080076132,432.0484702546874,280.274734569235,70.19676822202497,196.78164186149405,0,,,,,,
51.99832415853194,1.1287912398093305,432.55174830138816,279.4106100367115,70.66584255448257,197.85542673384055,0,,,,,,
52.998324158531915,1.1428955366260631,433.0550263480889,278.54648550418796,71.13491688694016,198.92921160618704,0,,,,,,
53.99832415853189,1.1569071332294922,433.5583043947897,277.6823609716644,71.60399121939776,200.00299647853353,0,,,,,,
54.99832415853186,1.1708272402037332,434.06158244149043,276.8182364391409,72.07306555185535,201.07678135088003,0,,,,,,
55.99832415853183,1.1846570445729752,434.5648604881912,275.95411190661736,72.54213988431295,202.15056622322652,0,,,,,,
56.9983241585318,1.1983977104088925,435.06813853489194,275.0899873740938,73.01121421677054,203.224351095573,0,,,,,,
57.99832415853177,1.2120503794186077,435.5714165815927,274.2258628415703,73.48028854922813,204.2981359679195,0,,,,,,
58.998324158531744,1.2256161715139458,436.07469462829346,273.36173830904676,73.94936288168573,205.371920840266,0,,,,,,
59.998324158531716,1.239096185362693,436.5779726749942,272.4976137765232,74.41843721414332,206.4457057126125,0,,,,,,
60.99832415853169,1.2524914989225355,437.08125072169497,271.6334892439997,74.88751154660092,207.519490584959,0,,,,,,
61.99832415853166,1.265803169958328,437.5845287683957,270.76936471147616,75.35658587905851,208.59327545730548,0,,,,,,
62.99832415853163,1.279032236543314,438.0878068150965,269.9052401789526,75.82566021151611,209.66706032965197,0,,,,,,
63.9983241585316,1.2921797175448893,438.59108486179724,269.0411156464291,76.2947345439737,210.74084520199847,0,,,,,,
64.99832415853157,1.3052466130954796,439.094362908498,268.17699111390556,76.7638088764313,211.81463007434496,0,,,,,,
65.99832415853155,1.3182339050490748,439.59764095519876,267.312866581382,77.2328832088889,212.88841494669146,0,,,,,,
66.99832415853152,1.3311425574239404,440.1009190018995,266.4487420488585,77.70195754134649,213.96219981903795,0,,,,,,
67.99832415853149,1.343973516832008,440.60419704860027,265.58461751633496,78.17103187380408,215.03598469138444,0,,,,,,
68.99832415853146,1.35672771289542,441.107475095301,264.7204929838114,78.64010620626168,216.10976956373094,0,,,,,,
69.99832415853143,1.369406058650689,441.6107531420018,263.8563684512879,79.10918053871927,217.18355443607743,0,,,,,,
70.9983241585314,1.3820094509409095,442.11403118870254,262.99224391876436,79.57825487117687,218.25733930842392,0,,,,,,
71.99832415853137,1.3945387707964447,442.6173092354033,262.1281193862408,80.04732920363446,219.33112418077042,0,,,,,,
72.99832415853135,1.4069948838044921,443.12058728210405,261.2639948537173,80.51640353609206,220.4049090531169,0,,,,,,
73.99832415853132,1.4193786404679143,443.6238653288048,260.39987032119376,80.98547786854965,221.4786939254634,0,,,,,,
74.99832415853129,1.4316908765537089,444.12714337550557,259.5357457886702,81.45455220100725,222.5524787978099,0,,,,,,
75.99832415853126,1.4439324134314728,444.6304214222063,258.6716212561467,81.92362653346484,223.6262636701564,0,,,,,,
76.99832415853123,1.4561040584022051,445.1336994689071,257.80749672362316,82.39270086592244,224.70004854250288,0,,,,,,
77.9983241585312,1.468206605017776,445.63697751560784,256.9433721910996,82.86177519838003,225.77383341484938,0,,,,,,
78.99832415853118,1.4802408333913792,446.1402555623086,256.0792476585761,83.33084953083763,226.84761828719587,0,,,,,,
79.99832415853118,1.492207510499272,446.64353360900935,255.21512312605253,83.79992386329523,227.9214031595424,0,,,,,,
80.99832415853118,1.5041073904740918,447.1468116557101,254.35099859352897,84.26899819575284,228.99518803188892,0,,,,,,
81.99832415853118,1.5159412148900333,447.65008970241087,253.4868740610054,84.73807252821045,230.06897290423544,0,,,,,,
82.99832415853118,1.5277097130401547,448.1533677491116,252.62274952848185,85.20714686066806,231.14275777658196,0,,,,,,
83.99832415853118,1.5394136022060705,448.6566457958124,251.7586249959583,85.67622119312567,232.21654264892848,0,,,,,,
84.99832415853118,1.5510535879202825,449.15992384251314,250.89450046343472,86.14529552558328,233.290327521275,0,,,,,,
85.99832415853118,1.5626303642213877,449.6632018892139,250.03037593091116,86.61436985804089,234.36411239362153,0,,,,,,
86.99832415853118,1.5741446139023947,450.16647993591465,249.1662513983876,87.0834441904985,235.43789726596805,0,,,,,,
87.99832415853118,1.5855970087523696,450.6697579826154,248.30212686586404,87.5525185229561,236.51168213831457,0,,,,,,
88.99832415853118,1.5969882097916273,451.17303602931617,247.43800233334048,88.02159285541372,237.5854670106611,0,,,,,,
89.99832415853118,1.6083188675006699,451.6763140760169,246.57387780081692,88.49066718787132,238.6592518830076,0,,,,,,
90.99832415853118,1.6195896220430772,452.1795921227177,245.70975326829335,88.95974152032893,239.73303675535414,0,,,,,,
91.99832415853118,1.6308011034825332,452.68287016941844,244.8456287357698,89.42881585278654,240.80682162770066,0,,,,,,
92.99832415853118,1.6419539319941763,453.1861482161192,243.98150420324623,89.89789018524415,241.88060650004718,0,,,,,,
93.99832415853118,1.6530487180704514,453.68942626281995,243.11737967072267,90.36696451770176,242.9543913723937,0,,,,,,
94.99832415853118,1.6640860627216314,454.1927043095207,242.2532551381991,90.83603885015937,244.02817624474022,0,,,,,,
95.99832415853118,1.6750665576711752,454.69598235622146,241.38913060567555,91.30511318261698,245.10196111708674,0,,,,,,
96.99832415853118,1.6859907855460812,455.1992604029222,240.52500607315199,91.77418751507459,246.17574598943327,0,,,,,,
97.99832415853118,1.6968593200623867,455.702538449623,239.66088154062842,92.2432618475322,247.2495308617798,0,,,,,,
98.99832415853118,1.707672726205965,456.20581649632373,238.79675700810486,92.7123361799898,248.3233157341263,0,,,,,,
99.99832415853118,1.7184315604087583,456.7090945430245,237.9326324755813,93.18141051244741,249.39710060647283,0,,,,,,
100.99832415853118,1.7291363707205876,457.21237258972525,237.06850794305774,93.65048484490502,250.47088547881935,0,,,,,,
101.99832415853118,1.7397876969766692,457.715650636426,236.20438341053418,94.11955917736263,251.54467035116588,0,,,,,,
102.99832415853118,1.7503860709609687,458.21892868312676,235.34025887801062,94.58863350982024,252.6184552235124,0,,,,,,
103.99832415853118,1.7609320165655127,458.7222067298275,234.47613434548705,95.05770784227785,253.69224009585892,0,,,,,,
104.99832415853118,1.7714260499457812,459.2254847765283,233.6120098129635,95.52678217473546,254.76602496820544,0,,,,,,
105.99832415853118,1.7818686796722936,459.72876282322903,232.74788528043993,95.99585650719307,255.83980984055196,0,,,,,,
106.99832415853118,1.7922604068784995,460.2320408699298,231.88376074791637,96.46493083965068,256.9135947128985,0,,,,,,
107.99832415853118,1.8026017254050832,460.73531891663055,231.0196362153928,96.93400517210829,257.987379585245,0,,,,,,
108.99832415853118,1.8128931219407856,461.2385969633313,230.15551168286925,97.4030795045659,259.0611644575915,0,,,,,,
109.99832415853118,1.8231350761598413,461.74187501003206,229.29138715034568,97.8721538370235,260.13494932993797,0,,,,,,
110.99832415853118,1.8333280608561333,462.2451530567328,228.42726261782212,98.34122816948111,261.20873420228446,0,,,,,,
111.99832415853118,1.8434725420741527,462.7484311034336,227.56313808529856,98.81030250193872,262.28251907463095,0,,,,,,
112.99832415853118,1.8535689792368593,463.25170915013433,226.699013552775,99.27937683439633,263.35630394697745,0,,,,,,
113.99832415853118,1.8636178252705276,463.7549871968351,225.83488902025144,99.74845116685394,264.43008881932394,0,,,,,,
114.99832415853118,1.8736195267266653,464.25826524353585,224.97076448772788,100.21752549931155,265.50387369167044,0,,,,,,
115.99832415853118,1.8835745239010842,464.7615432902366,224.10663995520432,100.68659983176916,266.57765856401693,0,,,,,,
116.99832415853118,1.893483250950204,465.26482133693736,223.24251542268075,101.15567416422677,267.6514434363634,0,,,,,,
117.99832415853118,1.903346136004667,465.7680993836381,222.3783908901572,101.62474849668438,268.7252283087099,0,,,,,,
118.99832415853118,1.913163601280335,466.2713774303389,221.51426635763363,102.09382282914198,269.7990131810564,0,,,,,,
119.99832415853118,1.9229360631867434,466.77465547703963,220.65014182511007,102.5628971615996,270.8727980534029,0,,,,,,
120.99832415853118,1.93266393243308,467.2779335237404,219.7860172925865,103.0319714940572,271.9465829257494,0,,,,,,
121.99832415853118,1.9423476141317582,467.78121157044114,218.92189276006295,103.50104582651481,273.0203677980959,0,,,,,,
122.99832415853118,1.9519875078996465,468.2844896171419,218.05776822753938,103.97012015897242,274.0941526704424,0,,,,,,
123.99832415853118,1.961584007957021,468.78776766384266,217.19364369501582,104.43919449143003,275.1679375427889,0,,,,,,
124.99832415853118,1.9711375032243013,469.2910457105434,216.32951916249226,104.90826882388764,276.24172241513537,0,,,,,,
125.99832415853118,1.980648377416626,469.7943237572442,215.4653946299687,105.37734315634525,277.31550728748186,0,,,,,,
126.99832415853118,1.9901170091363307,470.29760180394493,214.60127009744514,105.84641748880286,278.38929215982836,0,,,,,,
127.99832415853118,1.9995437719633804,470.8008798506457,213.73714556492158,106.31549182126047,279.46307703217485,0,,,,,,
128.99832415853118,2.00892903454381,471.30415789734644,212.87302103239801,106.78456615371807,280.53686190452134,0,,,,,,
129.99832415853118,2.0182731606762294,471.8074359440472,212.00889649987445,107.25364048617568,281.61064677686784,0,,,,,,
130.99832415853118,2.0275765093964377,472.31071399074796,211.1447719673509,107.72271481863329,282.68443164921433,0,,,,,,
131.99832415853118,2.0368394350602017,472.8139920374487,210.28064743482733,108.1917891510909,283.7582165215608,0,,,,,,
132.99832415853118,2.046062287424243,473.31727008414947,209.41652290230377,108.66086348354851,284.8320013939073,0,,,,,,
133.99832415853118,2.055245411725481,473.8205481308502,208.5523983697802,109.12993781600612,285.9057862662538,0,,,,,,
134.99832415853118,2.0643891487585755,474.323826177551,207.68827383725665,109.59901214846373,286.9795711386003,0,,,,,,
135.99832415853118,2.0734938349518153,474.82710422425174,206.82414930473308,110.06808648092134,288.0533560109468,0,,,,,,
136.99832415853118,2.0825598024413914,475.3303822709525,205.96002477220952,110.53716081337895,289.1271408832933,0,,,,,,
137.99832415853118,2.0915873791440984,475.83366031765325,205.09590023968596,111.00623514583656,290.2009257556398,0,,,,,,
138.99832415853118,2.1005768888285035,476.336938364354,204.2317757071624,111.47530947829416,291.2747106279863,0,,,,,,
139.99832415853118,2.10952865118462,476.84021641105477,203.36765117463884,111.94438381075177,292.3484955003328,0,,,,,,
140.99832415853118,2.118442981892126,477.3434944577555,202.50352664211528,112.41345814320938,293.42228037267927,0,,,,,,
141.99832415853118,2.1273201926871614,477.8467725044563,201.6394021095917,112.88253247566699,294.49606524502576,0,,,,,,
142.99832415853118,2.1361605914277386,478.35005055115704,200.77527757706815,113.3516068081246,295.56985011737225,0,,,,,,
143.99832415853118,2.144964482157807,478.8533285978578,199.9111530445446,113.82068114058221,296.64363498971875,0,,,,,,
144.99832415853118,2.1537321651699948,479.35660664455855,199.04702851202103,114.28975547303982,297.71741986206524,0,,,,,,
145.99832415853118,2.16246393706707,479.8598846912593,198.18290397949747,114.75882980549743,298.79120473441174,0,,,,,,
146.99832415853118,2.171160090822146,480.36316273796007,197.3187794469739,115.22790413795504,299.86498960675823,0,,,,,,
147.99832415853118,2.1798209158376634,480.8664407846608,196.45465491445034,115.69697847041265,300.9387744791047,0,,,,,,
148.99832415853118,2.1884466980031814,481.3697188313616,195.59053038192678,116.16605280287025,302.0125593514512,0,,,,,,
149.99832415853118,2.1970377197520015,481.87299687806234,194.72640584940322,116.63512713532786,303.0863442237977,0,,,,,,
150.99832415853118,2.2055942601166567,482.3762749247631,193.86228131687966,117.10420146778547,304.1601290961442,0,,,,,,
151.99832415853118,2.2141165947832926,482.87955297146385,192.9981567843561,117.57327580024308,305.2339139684907,0,,,,,,
152.99832415853118,2.222604996144963,483.3828310181646,192.13403225183254,118.04235013270069,306.3076988408372,0,,,,,,
153.99832415853118,2.23105973335387,483.88610906486537,191.26990771930897,118.5114244651583,307.3814837131837,0,,,,,,
154.99832415853118,2.2394810723725747,484.3893871115661,190.4057831867854,118.98049879761591,308.4552685855302,0,,,,,,
155.99832415853118,2.247869276024195,484.8926651582669,189.54165865426185,119.44957313007352,309.52905345787667,0,,,,,,
156.99832415853118,2.256224604041626,485.39594320496764,188.6775341217383,119.91864746253113,310.60283833022316,0,,,,,,
157.99832415853118,2.2645473131157945,485.8992212516684,187.81340958921473,120.38772179498874,311.67662320256966,0,,,,,,
158.99832415853118,2.2728376569429773,486.40249929836915,186.94928505669117,120.85679612744634,312.75040807491615,0,,,,,,
159.99832415853118,2.281095886271205,486.9057773450699,186.0851605241676,121.32587045990395,313.82419294726265,0,,,,,,
160.99832415853118,2.2893222489457656,487.40905539177066,185.22103599164404,121.79494479236156,314.89797781960914,0,,,,,,
161.99832415853118,2.297516989953839,487.9123334384714,184.35691145912048,122.26401912481917,315.97176269195563,0,,,,,,
162.99832415853118,2.3056803514682724,488.4156114851722,183.49278692659692,122.73309345727678,317.0455475643021,0,,,,,,
163.99832415853118,2.313812572890524,488.91888953187294,182.62866239407336,123.20216778973439,318.1193324366486,0,,,,,,
164.99832415853118,2.3219138908927888,489.4221675785737,181.7645378615498,123.671242122192,319.1931173089951,0,,,,,,
165.99832415853118,2.329984539459328,489.92544562527445,180.90041332902624,124.14031645464961,320.2669021813416,0,,,,,,
166.99832415853118,2.338024749927018,490.4287236719752,180.03628879650267,124.60939078710722,321.3406870536881,0,,,,,,
167.99832415853118,2.3460347510251394,490.93200171867596,179.1721642639791,125.07846511956483,322.4144719260346,0,,,,,,
168.99832415853118,2.354014768914419,491.4352797653767,178.30803973145555,125.54753945202243,323.4882567983811,0,,,,,,
169.99832415853118,2.361965027225347,491.9385578120775,177.443915198932,126.01661378448004,324.5620416707276,0,,,,,,
170.99832415853118,2.3698857470957773,492.44183585877823,176.57979066640843,126.48568811693765,325.6358265430741,0,,,,,,
171.99832415853118,2.3777771472078384,492.945113905479,175.71566613388487,126.95476244939526,326.70961141542057,0,,,,,,
