Distance (in),Time (s),X (in),Y (in),Velocity (in/s),Orientation (deg),Touch,Way X (in),Way Y (in),Way Velocity (in/s),Way Orientation (deg),Way Turn Radius (in),Touch this Point
0.0,0.0,180.0,105.0,12.0,0.0,0,180.0,105.0,12.0,0.0,6.0,0.0
1.000000000000003,0.07685126426525168,180.99864793637747,105.05198364328358,14.024295359631534,0.0,0,215.54,106.85,180.0,0.0,24.0,1.0
2.000000000000006,0.14335635442364597,181.99729587275493,105.10396728656715,16.048590719263068,0.0,0,237.0,152.27,180.0,0.0,24.0,1.0
3.0000000000000093,0.20197046458748252,182.9959438091324,105.15595092985073,18.0728860788946,0.0,0,269.72,174.77,180.0,0.0,24.0,0.0
4.000000000000012,0.2543675424571303,183.99459174550987,105.20793457313431,20.097181438526135,0.0,0,303.47,183.52,180.0,0.0,24.0,0.0
5.000000000000016,0.30173996222442184,184.99323968188733,105.25991821641789,22.12147679815767,0.0,0,345.97,180.0,180.0,0.0,24.0,0.0
6.0000000000000195,0.3449670838953969,185.9918876182648,105.31190185970146,24.145772157789203,0.0,0,385.0,164.77,180.0,0.0,24.0,0.0
7.000000000000023,0.3847159982116452,186.99053555464226,105.36388550298504,26.170067517420737,0.0,0,400.0,135.18,120.0,0.0,24.0,1.0
8.000000000000027,0.42150475853687686,187.98918349101973,105.41586914626862,28.19436287705227,0.0,0,420.15,101.85,120.0,0.0,24.0,1.0
9.00000000000003,0.4557436998185785,188.9878314273972,105.4678527895522,30.218658236683805,0.0,0,453.49,103.93,120.0,0.0,24.0,1.0
10.000000000000034,0.4877633666396544,189.98647936377466,105.51983643283577,32.24295359631534,0.0,0,477.65,121.01,120.0,0.0,30.0,1.0
11.000000000000037,0.5178339411267558,190.98512730015213,105.57182007611935,34.267248955946876,0.0,0,475.15,154.77,120.0,0.0,30.0,1.0
12.00000000000004,0.5461790970919888,191.9837752365296,105.62380371940293,36.29154431557841,0.0,0,455.57,170.19,120.0,0.0,24.0,1.0
13.000000000000044,0.5729860951800995,192.98242317290706,105.6757873626865,38.31583967520995,0.0,0,405.56,165.19,120.0,0.0,24.0,1.0
14.000000000000048,0.5984132799219145,193.98107110928453,105.72777100597008,40.34013503484149,0.0,0,400.0,130.6,180.0,0.0,6.0,1.0
15.000000000000052,0.6225957417922856,194.979719045662,105.77975464925366,42.364430394473025,0.0,0,394.31,105.18,180.0,0.0,24.0,1.0
16.000000000000053,0.6456496580852527,195.97836698203946,105.83173829253724,44.388725754104556,0.0,0,348.89,98.09,180.0,0.0,12.0,0.0
17.000000000000057,0.6676756660530393,196.97701491841693,105.88372193582082,46.41302111373609,0.0,0,290.13,99.76,156.0,0.0,12.0,0.0
18.00000000000006,0.688761516149918,197.9756628547944,105.9357055791044,48.43731647336763,0.0,0,251.8,108.1,180.0,0.0,12.0,0.0
19.000000000000064,0.7089841822015102,198.97431079117186,105.98768922238797,50.46161183299917,0.0,0,227.63,119.35,96.0,0.0,3.0,0.0
20.000000000000068,0.7284115566436479,199.97295872754933,106.03967286567155,52.485907192630705,0.0,0,222.0,135.0,180.0,0.0,24.0,0.0
21.00000000000007,0.7471038250332981,200.9716066639268,106.09165650895513,54.51020255226224,0.0,0,216.38,160.0,108.0,0.0,24.0,0.0
21.999696224479173,0.7651092184710964,201.96926239305998,106.15549683606505,56.533882980516445,0.0,0,157.62,162.0,180.0,0.0,6.0,0.0
22.99962388808602,0.78248537672789,202.96375382498323,106.2596223578044,58.55803190992298,0.0,0,130.34,162.0,0.0,0.0,3.0,0.0
23.999551551692882,0.7992711057530908,203.95304479983835,106.40508266000565,60.582180839329546,0.0,0,,,,,,
24.99947921529975,0.8155052116558437,204.93541804704105,106.59162524395556,62.606329768736124,0.0,0,,,,,,
25.9994068789066,0.8312227964594132,205.9091683042134,106.81892629785331,64.63047869814267,0.0,0,,,,,,
26.999334542513445,0.8464557149768607,206.8726052772806,107.08659125890233,66.65462762754919,0.0,0,,,,,,
27.9992622061203,0.8612329633529322,207.82405657458466,107.39415549821614,68.67877655695574,0.0,0,,,,,,
28.99918986972717,0.8755810111805603,208.76187060992217,107.74108512734901,70.70292548636232,0.0,0,,,,,,
29.999117533334022,0.8895240867475847,209.68441946946658,108.1267779250515,72.72707441576885,0.0,0,,,,,,
30.99904519694088,0.9030844231331822,210.5901017375987,108.55056438264225,74.75122334517542,0.0,0,,,,,,
31.998972860547745,0.9162824714298138,211.47734527673992,109.01170886618124,76.775372274582,0.0,0,,,,,,
32.9989005241546,0.9291370862233581,212.3446099563628,109.50941089342734,78.79952120398855,0.0,0,,,,,,
33.99882818776146,0.9416656875528904,213.19039032644207,110.04280652336337,80.82367013339511,0.0,1,,,,,,
34.99875585136831,0.9539665937248784,214.01321823070498,110.61096985587662,81.75421634523047,0.0,0,,,,,,
35.998683514975156,0.9661282803308378,214.81166535514498,111.21291463899193,82.68476255706584,0.0,0,,,,,,
36.998611178582024,0.9781538634305215,215.5843457073749,111.84759598086686,83.61530876890122,0.0,0,,,,,,
37.99853884218887,0.9900463556244452,216.3299180225154,112.51391216357766,84.54585498073658,0.0,0,,,,,,
38.99846650579573,1.0018086705838185,217.04708809144321,113.21070655554729,85.47640119257196,0.0,0,,,,,,
39.998394169402566,1.01344362733523,217.7346110073568,113.93676961929583,86.4069474044073,0.0,0,,,,,,
40.99832183300943,1.024953954315856,218.39129332676023,114.6908410110282,87.33749361624268,0.0,0,,,,,,
41.99824949661628,1.0363422932137745,219.015995141114,115.47161176841438,88.26803982807805,0.0,0,,,,,,
42.998177160223136,1.0476112026069204,219.60763205555645,116.27772658276483,89.19858603991341,0.0,0,,,,,,
43.99810482382998,1.0587631614132054,220.16517707126164,117.10778615165646,90.12913225174877,0.0,0,,,,,,
44.99803248743685,1.0698005721634516,220.68766236816526,117.96034960792574,91.05967846358415,0.0,0,,,,,,
45.997960151043706,1.0807257641079404,221.1741809849648,118.83393702081223,91.99022467541951,0.0,0,,,,,,
46.997960151043706,1.0915417746205132,221.60137717886514,119.73809597360597,92.92083820448099,0.0,0,,,,,,
47.997960151043706,1.1022500012030734,222.02857337276546,120.6422549263997,93.85145173354246,0.0,0,,,,,,
48.997960151043706,1.112852570841007,222.4557695666658,121.54641387919344,94.78206526260394,0.0,0,,,,,,
49.997960151043706,1.1233515481746297,222.88296576056612,122.45057283198717,95.71267879166541,0.0,0,,,,,,
50.997960151043706,1.1337489379121772,223.31016195446645,123.35473178478091,96.64329232072689,0.0,0,,,,,,
51.997960151043706,1.1440466871271777,223.73735814836678,124.25889073757465,97.57390584978836,0.0,0,,,,,,
52.997960151043706,1.154246687446784,224.1645543422671,125.16304969036838,98.50451937884984,0.0,0,,,,,,
53.997960151043706,1.1643507771372243,224.59175053616744,126.06720864316212,99.43513290791131,0.0,0,,,,,,
54.997960151043706,1.1743607430921175,225.01894673006777,126.97136759595585,100.36574643697278,0.0,0,,,,,,
55.997960151043706,1.1842783227290332,225.4461429239681,127.87552654874959,101.29635996603426,0.0,0,,,,,,
56.997960151043706,1.1941052057993322,225.87333911786843,128.77968550154333,102.22697349509573,0.0,0,,,,,,
57.99796015104369,1.2038430361160004,226.30053531176875,129.68384445433705,103.1575870241572,0.0,0,,,,,,
58.99796015104368,1.213493413203898,226.72773150566908,130.58800340713077,104.08820055321866,0.0,0,,,,,,
59.997960151043664,1.2230578938765633,227.1549276995694,131.4921623599245,105.01881408228012,0.0,0,,,,,,
60.99796015104365,1.232537993743464,227.58212389346974,132.39632131271821,105.94942761134158,0.0,0,,,,,,
61.997960151043635,1.2419351886513406,228.00932008737007,133.30048026551194,106.88004114040304,0.0,0,,,,,,
62.99796015104362,1.2512509160630734,228.4365162812704,134.20463921830566,107.8106546694645,0.0,0,,,,,,
63.99796015104361,1.2604865763772937,228.86371247517073,135.10879817109938,108.74126819852596,0.0,0,,,,,,
64.99796015104359,1.2696435341917685,229.29090866907106,136.0129571238931,109.6718817275874,0.0,0,,,,,,
65.99796015104357,1.2787231195134108,229.7181048629714,136.91711607668682,110.60249525664887,0.0,0,,,,,,
66.99796015104356,1.287726628917597,230.14530105687172,137.82127502948055,111.53310878571033,0.0,0,,,,,,
67.99796015104354,1.29665532665932,230.57249725077205,138.72543398227427,112.46372231477179,0.0,0,,,,,,
68.99796015104353,1.3055104457385582,230.99969344467237,139.629592935068,113.39433584383325,0.0,0,,,,,,
69.99796015104351,1.3142931889221077,231.4268896385727,140.5337518878617,114.32494937289471,0.0,0,,,,,,
70.9979601510435,1.3230047297239924,231.85408583247303,141.43791084065543,115.25556290195617,0.0,0,,,,,,
71.99796015104349,1.3316462133464542,232.28128202637336,142.34206979344916,116.18617643101763,0.0,0,,,,,,
72.99796015104347,1.3402187575834068,232.7084782202737,143.24622874624288,117.11678996007909,0.0,0,,,,,,
73.99796015104346,1.3487234536881385,233.13567441417402,144.1503876990366,118.04740348914055,0.0,0,,,,,,
74.99796015104344,1.3571613672069462,233.56287060807435,145.05454665183032,118.97801701820201,0.0,0,,,,,,
75.99796015104343,1.3655335387802943,233.99006680197468,145.95870560462404,119.90863054726347,0.0,0,,,,,,
76.99780918336364,1.3738397356043612,234.4442518401673,146.84944352259635,120.83910358375968,0.0,0,,,,,,
77.9977368469705,1.3820828649200072,234.9080391993173,147.73530842083926,121.76964979559504,0.0,0,,,,,,
78.99766451057734,1.3902632411976812,235.4083243815926,148.60108556817107,122.70019600743039,0.0,0,,,,,,
79.99759217418419,1.3983818126674705,235.9442389619806,149.44527209671426,123.63074221926576,0.0,0,,,,,,
80.99751983779106,1.4064395062282722,236.51485266782345,150.26640261688178,124.56128843110113,0.0,0,,,,,,
81.9974475013979,1.414437228082846,237.11917499364102,151.0630517610881,125.49183464293648,0.0,1,,,,,,
82.99737516500477,1.4223834765293943,237.7561569205097,151.83383665798797,126.18105737222285,0.0,0,,,,,,
83.9973028286116,1.4302864394110715,238.4246927370124,152.57741933294704,126.87028010150918,0.0,0,,,,,,
84.99723049221846,1.4381465857515092,239.1236219585987,153.2925090305788,127.55950283079555,0.0,0,,,,,,
85.99715815582532,1.4459643769922113,239.8517313420234,153.97786445531486,128.2487255600819,0.0,0,,,,,,
86.99708581943214,1.4537402671551063,240.60775699136704,154.63229592612043,128.93794828936825,0.0,0,,,,,,
87.997013483039,1.4614747030007678,241.39038655198212,155.25466744161398,129.6271710186546,0.0,0,,,,,,
88.997013483039,1.4691686792612613,242.21436968947603,155.82128176293466,130.3164436074339,0.0,0,,,,,,
89.997013483039,1.4768220677129056,243.03835282696994,156.38789608425535,131.00571619621323,0.0,0,,,,,,
90.997013483039,1.4844352943319323,243.86233596446385,156.95451040557603,131.69498878499255,0.0,0,,,,,,
91.997013483039,1.4920087784235359,244.68631910195776,157.52112472689672,132.38426137377186,0.0,0,,,,,,
92.997013483039,1.4995429327604468,245.51030223945168,158.0877390482174,133.07353396255118,0.0,0,,,,,,
93.997013483039,1.5070381637179255,246.3342853769456,158.6543533695381,133.7628065513305,0.0,0,,,,,,
94.997013483039,1.5144948714052864,247.1582685144395,159.22096769085877,134.45207914010982,0.0,0,,,,,,
95.997013483039,1.5219134497940596,247.9822516519334,159.78758201217946,135.14135172888913,0.0,0,,,,,,
96.997013483039,1.529294286842893,248.80623478942732,160.35419633350014,135.83062431766845,0.0,0,,,,,,
97.997013483039,1.536637764619292,249.63021792692123,160.92081065482083,136.51989690644777,0.0,0,,,,,,
98.997013483039,1.5439442594182957,250.45420106441514,161.4874249761415,137.2091694952271,0.0,0,,,,,,
99.997013483039,1.5512141418781782,251.27818420190906,162.0540392974622,137.8984420840064,0.0,0,,,,,,
100.997013483039,1.5584477770932652,252.10216733940297,162.62065361878288,138.58771467278572,0.0,0,,,,,,
101.997013483039,1.565645524723954,252.92615047689688,163.18726794010357,139.27698726156504,0.0,0,,,,,,
102.997013483039,1.5728077391040156,253.7501336143908,163.75388226142425,139.96625985034436,0.0,0,,,,,,
103.997013483039,1.5799347693452628,254.5741167518847,164.32049658274494,140.65553243912368,0.0,0,,,,,,
104.997013483039,1.5870269594396589,255.3980998893786,164.88711090406562,141.344805027903,0.0,0,,,,,,
105.99701348303898,1.5940846483589435,256.2220830268725,165.4537252253863,142.0340776166823,0.0,0,,,,,,
106.99701348303897,1.601108170151847,257.0460661643664,166.020339546707,142.72335020546163,0.0,0,,,,,,
107.99701348303896,1.6080978540389619,257.87004930186026,166.58695386802768,143.41262279424095,0.0,0,,,,,,
108.99701348303894,1.6150540245053413,258.69403243935415,167.15356818934836,144.10189538302026,0.0,0,,,,,,
109.99701348303893,1.6219770013908872,259.51801557684803,167.72018251066905,144.79116797179958,0.0,0,,,,,,
110.99701348303891,1.6288670999785928,260.3419987143419,168.28679683198973,145.4804405605789,0.0,0,,,,,,
111.9970134830389,1.635724631080699,261.1659818518358,168.85341115331042,146.16971314935822,0.0,0,,,,,,
112.99701348303888,1.6425499011228248,261.9899649893297,169.4200254746311,146.85898573813753,0.0,0,,,,,,
113.99701348303887,1.6493432122261278,262.81394812682356,169.9866397959518,147.54825832691685,0.0,0,,,,,,
114.99701348303886,1.6561048622875494,263.63793126431744,170.55325411727247,148.23753091569617,0.0,0,,,,,,
115.99701348303884,1.6628351450582002,264.4619144018113,171.11986843859316,148.9268035044755,0.0,0,,,,,,
116.99701348303883,1.669534350219934,265.2858975393052,171.68648275991384,149.6160760932548,0.0,0,,,,,,
117.99701348303881,1.6762027634601633,266.1098806767991,172.25309708123453,150.30534868203412,0.0,0,,,,,,
118.99759813312504,1.6828445385123192,266.9262861698137,172.8315879739578,150.9950242540919,0.0,0,,,,,,
119.9975257967319,1.6894517148777093,267.78026986920884,173.35174869297998,151.68424698337827,0.0,0,,,,,,
120.99745346033873,1.6960289376133941,268.6551794631613,173.83588558979343,152.37346971266462,0.0,0,,,,,,
121.99738112394559,1.702576477083201,269.5494962311452,174.28315827054763,153.06269244195096,0.0,0,,,,,,
122.99730878755244,1.7090967583655432,270.4616677644985,174.69279033250837,153.65035268841322,0.0,0,,,,,,
123.99723645115932,1.71559214939198,271.3901106611869,175.06407071178413,154.23801293487548,0.0,0,,,,,,
124.99716411476615,1.722062839469952,272.3332132743681,175.39635491763352,154.82567318133772,0.0,0,,,,,,
125.99716411476612,1.7285094811988502,273.3012101725339,175.64731707641724,155.41337594009778,0.0,0,,,,,,
126.9971641147661,1.734931790665245,274.2692070706997,175.89827923520096,156.00107869885784,0.0,0,,,,,,
127.99716411476606,1.7413299508582814,275.23720396886546,176.14924139398468,156.5887814576179,0.0,0,,,,,,
128.99716411476604,1.7477041427106006,276.20520086703124,176.4002035527684,157.17648421637796,0.0,0,,,,,,
129.997164114766,1.7540545451290412,277.173197765197,176.65116571155212,157.76418697513802,0.0,0,,,,,,
130.99716411476598,1.7603813350247695,278.1411946633628,176.90212787033585,158.35188973389808,0.0,0,,,,,,
131.99716411476595,1.76668468734285,279.1091915615286,177.15309002911957,158.93959249265814,0.0,0,,,,,,
132.99716411476592,1.7729647750912727,280.07718845969436,177.4040521879033,159.5272952514182,0.0,0,,,,,,
133.9971641147659,1.7792217693694459,281.04518535786013,177.655014346687,160.11499801017825,0.0,0,,,,,,
134.99716411476587,1.7854558393961653,282.0131822560259,177.90597650547073,160.7027007689383,0.0,0,,,,,,
135.99716411476584,1.7916671525370746,282.9811791541917,178.15693866425445,161.29040352769837,0.0,0,,,,,,
136.9971641147658,1.7978558743316273,283.9491760523575,178.40790082303818,161.87810628645843,0.0,0,,,,,,
137.99716411476578,1.8040221685195565,284.91717295052325,178.6588629818219,162.4658090452185,0.0,0,,,,,,
138.99716411476575,1.8101661970668712,285.88516984868903,178.90982514060562,163.05351180397855,0.0,0,,,,,,
139.99716411476572,1.8162881201913814,286.8531667468548,179.16078729938934,163.6412145627386,0.0,0,,,,,,
140.9971641147657,1.8223880963877679,287.8211636450206,179.41174945817306,164.22891732149867,0.0,0,,,,,,
141.99716411476567,1.828466282452203,288.78916054318637,179.66271161695678,164.81662008025873,0.0,0,,,,,,
142.99716411476564,1.8345228335065342,289.75715744135215,179.9136737757405,165.4043228390188,0.0,0,,,,,,
143.9971641147656,1.8405579030220374,290.7251543395179,180.16463593452423,165.99202559777885,0.0,0,,,,,,
144.99716411476558,1.8465716428427519,291.6931512376837,180.41559809330795,166.5797283565389,0.0,0,,,,,,
145.99716411476555,1.852564203208404,292.6611481358495,180.66656025209167,167.16743111529897,0.0,0,,,,,,
146.99716411476552,1.8585357327769283,293.62914503401527,180.9175224108754,167.75513387405903,0.0,0,,,,,,
147.9971641147655,1.8644863786465944,294.59714193218105,181.1684845696591,168.3428366328191,0.0,0,,,,,,
148.99716411476547,1.8704162863777498,295.5651388303468,181.41944672844284,168.93053939157915,0.0,0,,,,,,
149.99716411476544,1.8763256000141832,296.5331357285126,181.67040888722656,169.5182421503392,0.0,0,,,,,,
150.9971641147654,1.8822144621041201,297.5011326266784,181.92137104601028,170.10594490909926,0.0,0,,,,,,
151.99716411476538,1.8880830137208546,298.46912952484416,182.172333204794,170.69364766785932,0.0,0,,,,,,
152.99716411476535,1.8939313944830278,299.43712642300994,182.42329536357772,171.28135042661938,0.0,0,,,,,,
153.9989245419206,1.8997699853532972,300.3980863193056,182.70627951706638,171.8700877932752,0.0,0,,,,,,
154.99885220552744,1.9055779831945858,301.3789692252973,182.9005063359653,172.45774803973745,0.0,0,,,,,,
155.99877986913432,1.9113662235929663,302.36709123627384,183.05370628332167,173.04540828619972,0.0,0,,,,,,
156.99870753274118,1.917134840513072,303.3607371108085,183.16561342548223,173.63306853266198,0.0,0,,,,,,
157.99863519634803,1.9228850829134094,304.358182018821,183.23603350732049,174.15319645963757,0.0,0,,,,,,
158.99856285995486,1.9286181771814772,305.35769453564114,183.26484428943655,174.67332438661313,0.0,0,,,,,,
159.99849052356174,1.9343342252900617,306.3575396475193,183.2519957603476,175.19345231358872,0.0,0,,,,,,
160.9984905235617,1.9400337399762948,307.3541273247335,183.16945485155244,175.71361786746428,0.0,0,,,,,,
161.99849052356168,1.945716407308618,308.3507150019477,183.0869139427573,176.23378342133984,0.0,0,,,,,,
162.99849052356166,1.9513823265926147,309.34730267916194,183.00437303396214,176.7539489752154,0.0,0,,,,,,
163.99849052356163,1.9570315962584235,310.34389035637616,182.921832125167,177.27411452909095,0.0,0,,,,,,
164.9984905235616,1.962664313870998,311.3404780335904,182.83929121637183,177.7942800829665,0.0,0,,,,,,
165.99849052356157,1.9682805761402173,312.3370657108046,182.75675030757668,178.31444563684207,0.0,0,,,,,,
166.99849052356154,1.9738804789308486,313.33365338801883,182.67420939878153,178.83461119071762,0.0,0,,,,,,
167.99849052356151,1.9794641172723653,314.33024106523305,182.59166848998638,179.35477674459318,0.0,0,,,,,,
168.9984905235615,1.9850315853686231,315.3268287424473,182.50912758119122,179.87494229846874,0.0,0,,,,,,
169.99849052356146,1.9905890714976273,316.3234164196615,182.42658667239607,180.0,0.0,0,,,,,,
170.99849052356143,1.9961446270531826,317.3200040968757,182.34404576360092,180.0,0.0,0,,,,,,
171.9984905235614,2.001700182608738,318.31659177408994,182.26150485480576,180.0,0.0,0,,,,,,
172.99849052356137,2.0072557381642935,319.31317945130417,182.1789639460106,180.0,0.0,0,,,,,,
173.99849052356134,2.012811293719849,320.3097671285184,182.09642303721546,180.0,0.0,0,,,,,,
174.99849052356132,2.0183668492754046,321.3063548057326,182.0138821284203,180.0,0.0,0,,,,,,
175.9984905235613,2.02392240483096,322.30294248294683,181.93134121962515,180.0,0.0,0,,,,,,
176.99849052356126,2.0294779603865156,323.29953016016105,181.84880031083,180.0,0.0,0,,,,,,
177.99849052356123,2.035033515942071,324.2961178373753,181.76625940203485,180.0,0.0,0,,,,,,
178.9984905235612,2.0405890714976267,325.2927055145895,181.6837184932397,180.0,0.0,0,,,,,,
179.99849052356117,2.0461446270531822,326.2892931918037,181.60117758444454,180.0,0.0,0,,,,,,
180.99849052356114,2.0517001826087378,327.28588086901794,181.5186366756494,180.0,0.0,0,,,,,,
181.99849052356112,2.0572557381642933,328.28246854623217,181.43609576685424,180.0,0.0,0,,,,,,
182.9984905235611,2.062811293719849,329.2790562234464,181.35355485805908,180.0,0.0,0,,,,,,
183.99849052356106,2.0683668492754044,330.2756439006606,181.27101394926393,180.0,0.0,0,,,,,,
