Distance (in),Time (s),X (in),Y (in),Velocity (in/s),Orientation (deg),Touch,Way X (in),Way Y (in),Way Velocity (in/s),Way Orientation (deg),Way Turn Radius (in),Touch this Point
0.0,0.0,180.0,105.0,0.0,0.0,0,180.0,105.0,0.0,0.0,6.0,0.0
1.000000000000003,0.16666666666666718,180.99864793637747,105.05198364328358,12.0,0.0,0,215.54,106.85,180.0,0.0,24.0,1.0
2.000000000000006,0.2500000000000008,181.99729587275493,105.10396728656715,12.0,0.0,0,237.0,152.27,180.0,0.0,24.0,1.0
3.0000000000000093,0.33333333333333437,182.9959438091324,105.15595092985073,12.0,0.0,0,269.72,174.77,180.0,0.0,24.0,0.0
4.000000000000012,0.41666666666666796,183.99459174550987,105.20793457313431,12.0,0.0,0,303.47,183.52,180.0,0.0,24.0,0.0
5.000000000000016,0.5000000000000016,184.99323968188733,105.25991821641789,12.0,0.0,0,345.97,180.0,180.0,0.0,24.0,0.0
6.0000000000000195,0.5767659699678572,185.9918876182648,105.31190185970146,14.053210828150414,0.0,0,385.0,164.77,180.0,0.0,24.0,0.0
7.000000000000023,0.6424503843244598,186.99053555464226,105.36388550298504,16.395412632842152,0.0,0,400.0,135.18,120.0,0.0,24.0,1.0
8.000000000000027,0.6993768767668487,187.98918349101973,105.41586914626862,18.73761443753389,0.0,0,420.15,101.85,120.0,0.0,24.0,1.0
9.00000000000003,0.7496061348042506,188.9878314273972,105.4678527895522,21.079816242225625,0.0,0,453.49,103.93,120.0,0.0,24.0,1.0
10.000000000000034,0.7945481025219261,189.98647936377466,105.51983643283577,23.422018046917362,0.0,0,477.65,121.01,120.0,0.0,30.0,1.0
11.000000000000037,0.8352098828379182,190.98512730015213,105.57182007611935,25.7642198516091,0.0,0,475.15,154.77,120.0,0.0,30.0,1.0
12.00000000000004,0.8723358561699109,191.9837752365296,105.62380371940293,28.106421656300835,0.0,0,455.57,170.19,120.0,0.0,24.0,1.0
13.000000000000044,0.9064917516353443,192.98242317290706,105.6757873626865,30.44862346099257,0.0,0,405.56,165.19,120.0,0.0,24.0,1.0
14.000000000000048,0.9381175807700048,193.98107110928453,105.72777100597008,32.790825265684305,0.0,0,400.0,130.6,180.0,0.0,6.0,1.0
15.000000000000052,0.967562318240206,194.979719045662,105.77975464925366,35.133027070376045,0.0,0,394.31,105.18,180.0,0.0,24.0,1.0
16.000000000000053,0.9951073952284587,195.97836698203946,105.83173829253724,37.47522887506778,0.0,0,348.89,98.09,180.0,0.0,12.0,0.0
17.000000000000057,1.0209830736113628,196.97701491841693,105.88372193582082,39.81743067975951,0.0,0,290.13,99.76,156.0,0.0,12.0,0.0
18.00000000000006,1.045380141800958,197.9756628547944,105.9357055791044,42.15963248445125,0.0,0,251.8,108.1,180.0,0.0,12.0,0.0
19.000000000000064,1.0684584495478724,198.97431079117186,105.98768922238797,44.50183428914299,0.0,0,227.63,119.35,96.0,0.0,3.0,0.0
20.000000000000068,1.0903532543334067,199.97295872754933,106.03967286567155,46.84403609383473,0.0,0,222.0,135.0,180.0,0.0,24.0,0.0
21.00000000000007,1.11118001986111,200.9716066639268,106.09165650895513,49.18623789852647,0.0,0,216.38,160.0,108.0,0.0,24.0,0.0
21.999696224479173,1.131032206468569,201.96926239305998,106.15549683606505,51.52772819964493,0.0,0,190.0,162.0,180.0,0.0,6.0,0
22.99962388808602,1.1500066180072968,202.96375382498323,106.2596223578044,53.86976057790607,0.0,0,170.34,162.0,0.0,0.0,3.0,0.0
23.999551551692882,1.1681736520199,203.95304479983835,106.40508266000565,56.211792956167244,0.0,0,,,,,,
24.99947921529975,1.185599213411901,204.93541804704105,106.59162524395556,58.55382533442844,0.0,0,,,,,,
25.9994068789066,1.2023414539620485,205.9091683042134,106.81892629785331,60.89585771268959,0.0,0,,,,,,
26.999334542513445,1.2184519425487392,206.8726052772806,107.08659125890233,63.23789009095072,0.0,0,,,,,,
27.9992622061203,1.2339766226179627,207.82405657458466,107.39415549821614,65.57992246921188,0.0,0,,,,,,
28.99918986972717,1.248956601682001,208.76187060992217,107.74108512734901,67.92195484747307,0.0,0,,,,,,
29.999117533334022,1.2634288070106316,209.68441946946658,108.1267779250515,70.26398722573423,0.0,0,,,,,,
30.99904519694088,1.2774265338365085,210.5901017375987,108.55056438264225,72.60601960399539,0.0,0,,,,,,
31.998972860547745,1.2909799065473708,211.47734527673992,109.01170886618124,74.94805198225657,0.0,0,,,,,,
32.9989005241546,1.3041162689284165,212.3446099563628,109.50941089342734,77.29008436051772,0.0,0,,,,,,
33.99882818776146,1.3168605161617843,213.19039032644207,110.04280652336337,79.6321167387789,0.0,1,,,,,,
34.99875585136831,1.32934372047302,214.01321823070498,110.61096985587662,80.57156793645152,0.0,0,,,,,,
35.998683514975156,1.3416822163186157,214.81166535514498,111.21291463899193,81.51101913412413,0.0,0,,,,,,
36.998611178582024,1.353879320246666,215.5843457073749,111.84759598086686,82.45047033179675,0.0,0,,,,,,
37.99853884218887,1.365938236079949,216.3299180225154,112.51391216357766,83.38992152946936,0.0,0,,,,,,
38.99846650579573,1.377862059967223,217.04708809144321,113.21070655554729,84.32937272714199,0.0,0,,,,,,
39.998394169402566,1.3896537851547126,217.7346110073568,113.93676961929583,85.26882392481458,0.0,0,,,,,,
40.99832183300943,1.4013163064961895,218.39129332676023,114.6908410110282,86.20827512248721,0.0,0,,,,,,
41.99824949661628,1.4128524247186403,219.015995141114,115.47161176841438,87.14772632015982,0.0,0,,,,,,
42.998177160223136,1.4242648504592486,219.60763205555645,116.27772658276483,88.08717751783243,0.0,0,,,,,,
43.99810482382998,1.4355562080882467,220.16517707126164,117.10778615165646,89.02662871550504,0.0,0,,,,,,
44.99803248743685,1.4467290393311238,220.68766236816526,117.96034960792574,89.96607991317767,0.0,0,,,,,,
45.997960151043706,1.4577858067026934,221.1741809849648,118.83393702081223,90.90553111085028,0.0,0,,,,,,
46.997960151043706,1.4687296843357422,221.60137717886514,119.73809597360597,91.84505026995015,0.0,0,,,,,,
47.997960151043706,1.4795621824108647,222.02857337276546,120.6422549263997,92.78456942905002,0.0,0,,,,,,
48.997960151043706,1.4902855451826647,222.4557695666658,121.54641387919344,93.7240885881499,0.0,0,,,,,,
49.997960151043706,1.5009019497510354,222.88296576056612,122.45057283198717,94.66360774724977,0.0,0,,,,,,
50.997960151043706,1.5114135087139893,223.31016195446645,123.35473178478091,95.60312690634964,0.0,0,,,,,,
51.997960151043706,1.5218222726907724,223.73735814836678,124.25889073757465,96.54264606544952,0.0,0,,,,,,
52.997960151043706,1.5321302327228052,224.1645543422671,125.16304969036838,97.48216522454939,0.0,0,,,,,,
53.997960151043706,1.5423393225594773,224.59175053616744,126.06720864316212,98.42168438364926,0.0,0,,,,,,
54.997960151043706,1.5524514208353617,225.01894673006777,126.97136759595585,99.36120354274914,0.0,0,,,,,,
55.997960151043706,1.5624683531449792,225.4461429239681,127.87552654874959,100.30072270184901,0.0,0,,,,,,
56.997960151043706,1.5723918940208432,225.87333911786843,128.77968550154333,101.24024186094888,0.0,0,,,,,,
57.99796015104369,1.582223768820147,226.30053531176875,129.68384445433705,102.17976102004874,0.0,0,,,,,,
58.99796015104368,1.5919656555251094,226.72773150566908,130.58800340713077,103.1192801791486,0.0,0,,,,,,
59.997960151043664,1.6016191864616776,227.1549276995694,131.4921623599245,104.05879933824846,0.0,0,,,,,,
60.99796015104365,1.6111859499409904,227.58212389346974,132.39632131271821,104.99831849734832,0.0,0,,,,,,
61.997960151043635,1.6206674918277295,228.00932008737007,133.30048026551194,105.93783765644818,0.0,0,,,,,,
62.99796015104362,1.6300653170392332,228.4365162812704,134.20463921830566,106.87735681554804,0.0,0,,,,,,
63.99796015104361,1.6393808909790064,228.86371247517073,135.10879817109938,107.8168759746479,0.0,0,,,,,,
64.99796015104359,1.6486156409080452,229.29090866907106,136.0129571238931,108.75639513374776,0.0,0,,,,,,
65.99796015104357,1.657770957257182,229.7181048629714,136.91711607668682,109.69591429284762,0.0,0,,,,,,
66.99796015104356,1.6668481948834708,230.14530105687172,137.82127502948055,110.63543345194748,0.0,0,,,,,,
67.99796015104354,1.675848674273453,230.57249725077205,138.72543398227427,111.57495261104734,0.0,0,,,,,,
68.99796015104353,1.6847736826959738,230.99969344467237,139.629592935068,112.5144717701472,0.0,0,,,,,,
69.99796015104351,1.6936244753070675,231.4268896385727,140.5337518878617,113.45399092924706,0.0,0,,,,,,
70.9979601510435,1.7024022762092839,231.85408583247303,141.43791084065543,114.39351008834691,0.0,0,,,,,,
71.99796015104349,1.7111082794676908,232.28128202637336,142.34206979344916,115.33302924744677,0.0,0,,,,,,
72.99796015104347,1.7197436500846621,232.7084782202737,143.24622874624288,116.27254840654663,0.0,0,,,,,,
73.99796015104346,1.728309524935441,233.13567441417402,144.1503876990366,117.21206756564649,0.0,0,,,,,,
74.99796015104344,1.7368070136663576,233.56287060807435,145.05454665183032,118.15158672474635,0.0,0,,,,,,
75.99796015104343,1.7452371995574762,233.99006680197468,145.95870560462404,119.09110588384621,0.0,0,,,,,,
76.99780918336364,1.7535998826270076,234.4442518401673,146.84944352259635,120.03048320591851,0.0,0,,,,,,
77.9977368469705,1.7618980231325319,234.9080391993173,147.73530842083926,120.96993440359113,0.0,0,,,,,,
78.99766451057734,1.7701319696339206,235.4083243815926,148.60108556817107,121.90938560126372,0.0,0,,,,,,
79.99759217418419,1.7783027077100608,235.9442389619806,149.44527209671426,122.84883679893633,0.0,0,,,,,,
80.99751983779106,1.7864112004151698,236.51485266782345,150.26640261688178,123.78828799660896,0.0,0,,,,,,
81.9974475013979,1.7944583889599857,237.11917499364102,151.0630517610881,124.72773919428155,0.0,1,,,,,,
82.99737516500477,1.802453072381524,237.7561569205097,151.83383665798797,125.42041824569307,0.0,0,,,,,,
83.9973028286116,1.8104037238996649,238.4246927370124,152.57741933294704,126.11309729710456,0.0,0,,,,,,
84.99723049221846,1.81831082588216,239.1236219585987,153.2925090305788,126.80577634851608,0.0,0,,,,,,
85.99715815582532,1.8261748528134616,239.8517313420234,153.97786445531486,127.49845539992758,0.0,0,,,,,,
86.99708581943214,1.833996271465574,240.60775699136704,154.63229592612043,128.19113445133905,0.0,0,,,,,,
87.997013483039,1.8417755410643015,241.39038655198212,155.25466744161398,128.88381350275057,0.0,0,,,,,,
88.997013483039,1.8495136716993612,242.21436968947603,155.82128176293466,129.57654266369101,0.0,0,,,,,,
89.997013483039,1.8572105437999886,243.03835282696994,156.38789608425535,130.26927182463146,0.0,0,,,,,,
90.997013483039,1.8648665950012286,243.86233596446385,156.95451040557603,130.9620009855719,0.0,0,,,,,,
91.997013483039,1.872482256011776,244.68631910195776,157.52112472689672,131.65473014651235,0.0,0,,,,,,
92.997013483039,1.880057950759371,245.51030223945168,158.0877390482174,132.3474593074528,0.0,0,,,,,,
93.997013483039,1.8875940965323998,246.3342853769456,158.6543533695381,133.04018846839324,0.0,0,,,,,,
94.997013483039,1.8950911041178171,247.1582685144395,159.22096769085877,133.73291762933368,0.0,0,,,,,,
95.997013483039,1.9025493779355067,247.9822516519334,159.78758201217946,134.42564679027413,0.0,0,,,,,,
96.997013483039,1.9099693161691886,248.80623478942732,160.35419633350014,135.11837595121457,0.0,0,,,,,,
97.997013483039,1.917351310893979,249.63021792692123,160.92081065482083,135.81110511215502,0.0,0,,,,,,
98.997013483039,1.9246957482007054,250.45420106441514,161.4874249761415,136.50383427309546,0.0,0,,,,,,
99.997013483039,1.9320030083170756,251.27818420190906,162.0540392974622,137.1965634340359,0.0,0,,,,,,
100.997013483039,1.9392734657257948,252.10216733940297,162.62065361878288,137.88929259497635,0.0,0,,,,,,
101.997013483039,1.9465074892797236,252.92615047689688,163.18726794010357,138.5820217559168,0.0,0,,,,,,
102.997013483039,1.9537054423141647,253.7501336143908,163.75388226142425,139.27475091685724,0.0,0,,,,,,
103.997013483039,1.9608676827563645,254.5741167518847,164.32049658274494,139.9674800777977,0.0,0,,,,,,
104.997013483039,1.967994563232311,255.3980998893786,164.88711090406562,140.66020923873813,0.0,0,,,,,,
105.99701348303898,1.9750864311709089,256.2220830268725,165.4537252253863,141.35293839967855,0.0,0,,,,,,
106.99701348303897,1.9821436289056082,257.0460661643664,166.020339546707,142.04566756061897,0.0,0,,,,,,
107.99701348303896,1.9891664937735605,257.87004930186026,166.58695386802768,142.73839672155938,0.0,0,,,,,,
108.99701348303894,1.9961553582123748,258.69403243935415,167.15356818934836,143.4311258824998,0.0,0,,,,,,
109.99701348303893,2.003110549854543,259.51801557684803,167.72018251066905,144.12385504344022,0.0,0,,,,,,
110.99701348303891,2.010032391619602,260.3419987143419,168.28679683198973,144.81658420438063,0.0,0,,,,,,
111.9970134830389,2.016921201804094,261.1659818518358,168.85341115331042,145.50931336532105,0.0,0,,,,,,
112.99701348303888,2.023777294169395,261.9899649893297,169.4200254746311,146.20204252626147,0.0,0,,,,,,
113.99701348303887,2.0306009780274645,262.81394812682356,169.9866397959518,146.89477168720188,0.0,0,,,,,,
114.99701348303886,2.037392558324577,263.63793126431744,170.55325411727247,147.5875008481423,0.0,0,,,,,,
115.99701348303884,2.0441523357230964,264.4619144018113,171.11986843859316,148.28023000908271,0.0,0,,,,,,
116.99701348303883,2.050880606681343,265.2858975393052,171.68648275991384,148.97295917002313,0.0,0,,,,,,
117.99701348303881,2.0575776635316068,266.1098806767991,172.25309708123453,149.66568833096355,0.0,0,,,,,,
118.99759813312504,2.064247682906544,266.9262861698137,172.8315879739578,150.35882249606766,0.0,0,,,,,,
119.9975257967319,2.070882675697716,267.78026986920884,173.35174869297998,151.05150154747918,0.0,0,,,,,,
120.99745346033873,2.0774873119099557,268.6551794631613,173.83588558979343,151.74418059889067,0.0,0,,,,,,
121.99738112394559,2.0840618680544654,269.5494962311452,174.28315827054763,152.43685965030218,0.0,0,,,,,,
122.99730878755244,2.090608821439285,270.4616677644985,174.69279033250837,153.02664522981243,0.0,0,,,,,,
123.99723645115932,2.0971305905039763,271.3901106611869,175.06407071178413,153.61643080932268,0.0,0,,,,,,
124.99716411476615,2.103627368260313,272.3332132743681,175.39635491763352,154.2062163888329,0.0,0,,,,,,
125.99716411476612,2.11009981280935,273.3012101725339,175.64731707641724,154.79604463439097,0.0,0,,,,,,
126.9971641147661,2.1165476419285554,274.2692070706997,175.89827923520096,155.38587287994903,0.0,0,,,,,,
127.99716411476606,2.122971042139029,275.23720396886546,176.14924139398468,155.9757011255071,0.0,0,,,,,,
128.99716411476604,2.1293701978498523,276.20520086703124,176.4002035527684,156.56552937106517,0.0,0,,,,,,
129.997164114766,2.1357452913898576,277.173197765197,176.65116571155212,157.15535761662323,0.0,0,,,,,,
130.99716411476598,2.142096503038797,278.1411946633628,176.90212787033585,157.7451858621813,0.0,0,,,,,,
131.99716411476595,2.148424011057933,279.1091915615286,177.15309002911957,158.33501410773937,0.0,0,,,,,,
132.99716411476592,2.1547279917200615,280.07718845969436,177.4040521879033,158.92484235329744,0.0,0,,,,,,
133.9971641147659,2.161008619338973,281.04518535786013,177.655014346687,159.5146705988555,0.0,0,,,,,,
134.99716411476587,2.1672660662983767,282.0131822560259,177.90597650547073,160.10449884441357,0.0,0,,,,,,
135.99716411476584,2.17350050308029,282.9811791541917,178.15693866425445,160.69432708997164,0.0,0,,,,,,
136.9971641147658,2.179712098292907,283.9491760523575,178.40790082303818,161.2841553355297,0.0,0,,,,,,
137.99716411476578,2.18590101869796,284.91717295052325,178.6588629818219,161.87398358108777,0.0,0,,,,,,
138.99716411476575,2.1920674292375817,285.88516984868903,178.90982514060562,162.46381182664584,0.0,0,,,,,,
139.99716411476572,2.198211493060683,286.8531667468548,179.16078729938934,163.0536400722039,0.0,0,,,,,,
140.9971641147657,2.204333371548853,287.8211636450206,179.41174945817306,163.64346831776197,0.0,0,,,,,,
141.99716411476567,2.210433224341793,288.78916054318637,179.66271161695678,164.23329656332004,0.0,0,,,,,,
142.99716411476564,2.216511209362294,289.75715744135215,179.9136737757405,164.8231248088781,0.0,0,,,,,,
143.9971641147656,2.222567482840771,290.7251543395179,180.16463593452423,165.41295305443617,0.0,0,,,,,,
144.99716411476558,2.228602199339358,291.6931512376837,180.41559809330795,166.00278129999424,0.0,0,,,,,,
145.99716411476555,2.2346155117755746,292.6611481358495,180.66656025209167,166.5926095455523,0.0,0,,,,,,
146.99716411476552,2.2406075714455795,293.62914503401527,180.9175224108754,167.18243779111037,0.0,0,,,,,,
147.9971641147655,2.246578528047008,294.59714193218105,181.1684845696591,167.77226603666844,0.0,0,,,,,,
148.99716411476547,2.2525285297014133,295.5651388303468,181.41944672844284,168.3620942822265,0.0,0,,,,,,
149.99716411476544,2.2584577229763148,296.5331357285126,181.67040888722656,168.95192252778457,0.0,0,,,,,,
150.9971641147654,2.26436625290686,297.5011326266784,181.92137104601028,169.54175077334264,0.0,0,,,,,,
151.99716411476538,2.270254263017113,298.46912952484416,182.172333204794,170.1315790189007,0.0,0,,,,,,
152.99716411476535,2.2761218953409714,299.43712642300994,182.42329536357772,170.72140726445878,0.0,0,,,,,,
153.9989245419206,2.281979566573014,300.3980863193056,182.70627951706638,171.31227385967728,0.0,0,,,,,,
154.99885220552744,2.287806407509381,301.3789692252973,182.9005063359653,171.90205943918752,0.0,0,,,,,,
155.99877986913432,2.2936132911427074,302.36709123627384,183.05370628332167,172.49184501869777,0.0,0,,,,,,
156.99870753274118,2.29940035371643,303.3607371108085,183.16561342548223,173.08163059820802,0.0,0,,,,,,
157.99863519634803,2.305168864419598,304.358182018821,183.23603350732049,173.60322969256808,0.0,0,,,,,,
158.99856285995486,2.310920069358188,305.35769453564114,183.26484428943655,174.1248287869281,0.0,0,,,,,,
159.99849052356174,2.3166540720576023,306.3575396475193,183.2519957603476,174.64642788128816,0.0,0,,,,,,
160.9984905235617,2.322371388070414,307.3541273247335,183.16945485155244,175.16806470897484,0.0,0,,,,,,
161.99849052356168,2.3280717036752274,308.3507150019477,183.0869139427573,175.68970153666152,0.0,0,,,,,,
162.99849052356166,2.3337551196735506,309.34730267916194,183.00437303396214,176.2113383643482,0.0,0,,,,,,
163.99849052356163,2.3394217359730094,310.34389035637616,182.921832125167,176.73297519203487,0.0,0,,,,,,
164.9984905235616,2.3450716515978858,311.3404780335904,182.83929121637183,177.25461201972155,0.0,0,,,,,,
165.99849052356157,2.3507049646994993,312.3370657108046,182.75675030757668,177.77624884740823,0.0,0,,,,,,
166.99849052356154,2.3563217725664396,313.33365338801883,182.67420939878153,178.2978856750949,0.0,0,,,,,,
167.99849052356151,2.361922171634647,314.33024106523305,182.59166848998638,178.81952250278158,0.0,0,,,,,,
168.9984905235615,2.3675062574973467,315.3268287424473,182.50912758119122,179.34115933046826,0.0,0,,,,,,
169.99849052356146,2.37307412491484,316.3234164196615,182.42658667239607,179.86279615815494,0.0,0,,,,,,
170.99849052356143,2.378631798620907,317.3200040968757,182.34404576360092,180.0,0.0,0,,,,,,
171.9984905235614,2.3841873541764627,318.31659177408994,182.26150485480576,180.0,0.0,0,,,,,,
172.99849052356137,2.389742909732018,319.31317945130417,182.1789639460106,180.0,0.0,0,,,,,,
173.99849052356134,2.3952984652875737,320.3097671285184,182.09642303721546,180.0,0.0,0,,,,,,
174.99849052356132,2.4008540208431293,321.3063548057326,182.0138821284203,180.0,0.0,0,,,,,,
175.9984905235613,2.406409576398685,322.30294248294683,181.93134121962515,180.0,0.0,0,,,,,,
176.99849052356126,2.4119651319542403,323.29953016016105,181.84880031083,180.0,0.0,0,,,,,,
177.99849052356123,2.417520687509796,324.2961178373753,181.76625940203485,180.0,0.0,0,,,,,,
178.9984905235612,2.4230762430653514,325.2927055145895,181.6837184932397,180.0,0.0,0,,,,,,
179.99849052356117,2.428631798620907,326.2892931918037,181.60117758444454,180.0,0.0,0,,,,,,
180.99849052356114,2.4341873541764625,327.28588086901794,181.5186366756494,180.0,0.0,0,,,,,,
181.99849052356112,2.439742909732018,328.28246854623217,181.43609576685424,180.0,0.0,0,,,,,,
182.9984905235611,2.4452984652875736,329.2790562234464,181.35355485805908,180.0,0.0,0,,,,,,
183.99849052356106,2.450854020843129,330.2756439006606,181.27101394926393,180.0,0.0,0,,,,,,
184.99849052356103,2.4564095763986846,331.27223157787483,181.18847304046878,180.0,0.0,0,,,,,,
