Distance (in),Time (s),X (in),Y (in),Velocity (in/s),Orientation (deg),Touch,Way X (in),Way Y (in),Way Velocity (in/s),Way Orientation (deg),Way Turn Radius (in),Touch this Point
0.0,0.0,110.24,125.39,12.0,0.0,0,110.24,125.39,12.0,0.0,3.0,0.0
1.0000000000000058,0.0774989148198612,110.86055938942054,126.17415945075093,13.806812968269554,0.0,0,167.82,198.15,180.0,0.0,3.0,0.0
2.0000000000000115,0.1454788659848018,111.4811187788411,126.95831890150187,15.613625936539108,0.0,0,223.49,123.18,180.0,0.0,3.0,0.0
3.0000000000000173,0.2060224294125962,112.10167816826164,127.7424783522528,17.420438904808663,0.0,0,166.24,124.45,180.0,0.0,3.0,0.0
4.000000000000012,0.26059612716947606,112.72223755768219,128.52663780300372,19.227251873078195,0.0,0,,,,,,
5.000000000000018,0.31027160137679116,113.34279694710274,129.31079725375466,21.03406484134775,0.0,0,,,,,,
6.000000000000023,0.3558557065438442,113.96335633652329,130.0949567045056,22.840877809617304,0.0,0,,,,,,
7.000000000000028,0.3979711052490028,114.58391572594384,130.87911615525653,24.647690777886858,0.0,0,,,,,,
8.000000000000034,0.4371083677213419,115.20447511536439,131.66327560600746,26.454503746156412,0.0,0,,,,,,
9.000000000000039,0.473660867220839,115.82503450478494,132.4474350567584,28.261316714425966,0.0,0,,,,,,
10.000000000000044,0.5079488662253814,116.44559389420549,133.23159450750933,30.06812968269552,0.0,0,,,,,,
11.00000000000005,0.5402365769354165,117.06615328362604,134.01575395826026,31.874942650965075,0.0,0,,,,,,
12.000000000000055,0.5707445197204051,117.68671267304659,134.7999134090112,33.68175561923463,0.0,0,,,,,,
13.00000000000006,0.5996586533888022,118.30727206246713,135.58407285976213,35.48856858750418,0.0,0,,,,,,
14.000000000000066,0.6271372389294734,118.92783145188768,136.36823231051306,37.29538155577374,0.0,0,,,,,,
15.000000000000071,0.6533160799690175,119.54839084130823,137.152391761264,39.10219452404329,0.0,0,,,,,,
16.000000000000078,0.6783125798290143,120.16895023072878,137.93655121201493,40.909007492312845,0.0,0,,,,,,
17.000000000000085,0.7022289220082363,120.78950962014933,138.72071066276587,42.7158204605824,0.0,0,,,,,,
18.000000000000092,0.725154591948866,121.41006900956988,139.5048701135168,44.522633428851954,0.0,0,,,,,,
19.0000000000001,0.7471683972886116,122.03062839899043,140.28902956426774,46.32944639712151,0.0,0,,,,,,
20.000000000000107,0.7683401017061706,122.65118778841098,141.07318901501867,48.13625936539106,0.0,0,,,,,,
21.000000000000114,0.7887317577804274,123.27174717783153,141.8573484657696,49.943072333660616,0.0,0,,,,,,
22.00000000000012,0.8083988030360769,123.89230656725208,142.64150791652054,51.74988530193017,0.0,0,,,,,,
23.000000000000128,0.8273909679336316,124.51286595667263,143.42566736727147,53.556698270199725,0.0,0,,,,,,
24.000000000000135,0.8457530332383337,125.13342534609318,144.2098268180224,55.36351123846928,0.0,0,,,,,,
25.000000000000142,0.8635254657879539,125.75398473551373,144.99398626877334,57.17032420673883,0.0,0,,,,,,
26.00000000000015,0.8807449553592888,126.37454412493427,145.77814571952428,58.97713717500839,0.0,0,,,,,,
27.000000000000156,0.8974448705386212,126.99510351435482,146.5623051702752,60.78395014327794,0.0,0,,,,,,
28.000000000000163,0.9136556478303106,127.61566290377537,147.34646462102614,62.590763111547496,0.0,0,,,,,,
29.00000000000016,0.9294051254023111,128.2362222931959,148.13062407177708,64.39757607981703,0.0,0,,,,,,
30.000000000000167,0.9447188306596657,128.85678168261646,148.914783522528,66.20438904808658,0.0,0,,,,,,
31.000000000000174,0.9596202291047966,129.477341072037,149.69894297327895,68.01120201635614,0.0,0,,,,,,
32.00000000000018,0.9741309405745263,130.09790046145756,150.48310242402988,69.81801498462569,0.0,0,,,,,,
33.000000000000185,0.9882709278546424,130.7184598508781,151.26726187478081,71.62482795289525,0.0,0,,,,,,
34.00000000000019,1.0020586618007683,131.33901924029865,152.05142132553175,73.4316409211648,0.0,0,,,,,,
35.0000000000002,1.0155112663918122,131.9595786297192,152.83558077628268,75.23845388943435,0.0,0,,,,,,
36.000000000000206,1.0286446465731445,132.58013801913975,153.61974022703362,77.04526685770391,0.0,0,,,,,,
37.00000000000021,1.0414736012830543,133.2006974085603,154.40389967778455,78.85207982597346,0.0,0,,,,,,
38.00000000000022,1.0540119236764727,133.82125679798085,155.18805912853549,80.65889279424302,0.0,0,,,,,,
39.00000000000023,1.0662724902476397,134.4418161874014,155.97221857928642,82.46570576251257,0.0,0,,,,,,
40.000000000000234,1.078267340295239,135.06237557682195,156.75637803003735,84.27251873078212,0.0,0,,,,,,
41.00000000000024,1.0900077469591736,135.6829349662425,157.5405374807883,86.07933169905168,0.0,0,,,,,,
42.00000000000025,1.1015042808794326,136.30349435566305,158.32469693153922,87.88614466732123,0.0,0,,,,,,
43.000000000000256,1.1127668673778621,136.9240537450836,159.10885638229016,89.69295763559079,0.0,0,,,,,,
44.00000000000026,1.1238048379379,137.54461313450415,159.8930158330411,91.49977060386034,0.0,0,,,,,,
45.00000000000027,1.1346269766512445,138.1651725239247,160.67717528379202,93.3065835721299,0.0,0,,,,,,
46.00000000000028,1.1452415622106187,138.78573191334524,161.46133473454296,95.11339654039945,0.0,0,,,,,,
47.000000000000284,1.1556564059515053,139.4062913027658,162.2454941852939,96.920209508669,0.0,0,,,,,,
48.00000000000029,1.1658788863807052,140.02685069218634,163.02965363604483,98.72702247693856,0.0,0,,,,,,
49.0000000000003,1.1759159805739936,140.6474100816069,163.81381308679576,100.53383544520811,0.0,0,,,,,,
50.000000000000306,1.1857742927774797,141.26796947102744,164.5979725375467,102.34064841347767,0.0,0,,,,,,
51.00000000000031,1.195460080506291,141.888528860448,165.38213198829763,104.14746138174722,0.0,0,,,,,,
52.00000000000032,1.2049792783988462,142.50908824986854,166.16629143904856,105.95427435001677,0.0,0,,,,,,
53.00000000000033,1.2143375200544184,143.1296476392891,166.9504508897995,107.76108731828633,0.0,0,,,,,,
54.000000000000334,1.223540158055183,143.75020702870964,167.73461034055043,109.56790028655588,0.0,0,,,,,,
55.00000000000034,1.232592282350913,144.3707664181302,168.51876979130137,111.37471325482544,0.0,0,,,,,,
56.00000000000035,1.2414987371644148,144.99132580755074,169.3029292420523,113.18152622309499,0.0,0,,,,,,
57.000000000000355,1.2502641365582705,145.6118851969713,170.08708869280323,114.98833919136455,0.0,0,,,,,,
58.00000000000036,1.2588928787881102,146.23244458639184,170.87124814355417,116.7951521596341,0.0,0,,,,,,
59.00000000000037,1.2673891595541869,146.85300397581238,171.6554075943051,118.60196512790365,0.0,0,,,,,,
60.00000000000038,1.2757569842511922,147.47356336523293,172.43956704505604,120.40877809617321,0.0,0,,,,,,
61.000000000000384,1.2840001793058324,148.09412275465348,173.22372649580697,122.21559106444276,0.0,0,,,,,,
62.00000000000039,1.2921224026824925,148.71468214407403,174.0078859465579,124.02240403271232,0.0,0,,,,,,
63.0000000000004,1.3001271536291765,149.33524153349458,174.79204539730884,125.82921700098187,0.0,0,,,,,,
64.0000000000004,1.308017781728716,149.95580092291513,175.57620484805977,127.63602996925141,0.0,0,,,,,,
65.0000000000004,1.3157974953138354,150.57636031233568,176.3603642988107,129.44284293752096,0.0,0,,,,,,
66.0000000000004,1.3234693692989863,151.19691970175623,177.14452374956164,131.24965590579052,0.0,0,,,,,,
67.0000000000004,1.3310363524767914,151.81747909117678,177.92868320031258,133.05646887406007,0.0,0,,,,,,
68.0000000000004,1.338501274322427,152.43803848059733,178.7128426510635,134.86328184232963,0.0,0,,,,,,
69.0000000000004,1.3458668513452339,153.05859787001788,179.49700210181445,136.67009481059918,0.0,0,,,,,,
70.0000000000004,1.3531356930232372,153.67915725943843,180.28116155256538,138.47690777886874,0.0,0,,,,,,
71.0000000000004,1.360310307353013,154.29971664885898,181.0653210033163,140.2837207471383,0.0,0,,,,,,
72.0000000000004,1.36739310604444,154.92027603827952,181.84948045406725,142.09053371540784,0.0,0,,,,,,
73.0000000000004,1.3743864093872566,155.54083542770007,182.63363990481818,143.8973466836774,0.0,0,,,,,,
74.0000000000004,1.381292450813996,156.16139481712062,183.41779935556912,145.70415965194695,0.0,0,,,,,,
75.0000000000004,1.3881133811817494,156.78195420654117,184.20195880632005,147.5109726202165,0.0,0,,,,,,
76.0000000000004,1.3948512727932953,157.40251359596172,184.98611825707098,149.31778558848606,0.0,0,,,,,,
77.0000000000004,1.4015081231764062,158.02307298538227,185.77027770782192,151.12459855675561,0.0,0,,,,,,
78.0000000000004,1.4080858586385734,158.64363237480282,186.55443715857285,152.93141152502517,0.0,0,,,,,,
79.0000000000004,1.4145863376129786,159.26419176422337,187.3385966093238,154.73822449329472,0.0,0,,,,,,
80.0000000000004,1.4210113538102518,159.88475115364392,188.12275606007472,156.54503746156428,0.0,0,,,,,,
81.0000000000004,1.4273626391893877,160.50531054306447,188.90691551082566,158.35185042983383,0.0,0,,,,,,
82.0000000000004,1.433641866760131,161.12586993248502,189.6910749615766,160.15866339810339,0.0,0,,,,,,
83.0000000000004,1.439850653228175,161.74642932190557,190.47523441232752,161.96547636637294,0.0,0,,,,,,
84.0000000000004,1.4459905614936346,162.36698871132612,191.25939386307846,163.7722893346425,0.0,0,,,,,,
85.0000000000004,1.452063103012454,162.98754810074666,192.0435533138294,165.57910230291205,0.0,0,,,,,,
86.0000000000004,1.4580697400296745,163.6081074901672,192.82771276458033,167.3859152711816,0.0,0,,,,,,
87.0000000000004,1.4640118876928159,164.22866687958776,193.61187221533126,169.19272823945116,0.0,0,,,,,,
88.0000000000004,1.4698909160530138,164.8492262690083,194.3960316660822,170.9995412077207,0.0,0,,,,,,
88.99989318736239,1.475707533871751,165.47178052194403,195.17847181605188,172.80616118553073,0.0,0,,,,,,
89.99526998352289,1.481437792387139,166.23769133629702,195.81420414242194,174.6046208891481,0.0,0,,,,,,
90.99064677968336,1.4871093306010192,167.1694523263476,196.164341863547,176.40308059276543,0.0,0,,,,,,
91.98602357584386,1.4927233397679875,168.16448955170142,196.1903396806649,178.2015402963828,0.0,0,,,,,,
92.98140037200436,1.49828922180798,169.1132632375305,195.8893355952889,179.46927953358707,0.0,0,,,,,,
93.98140037200436,1.5038529795860995,169.7094354088521,195.08647898160146,180.0,0.0,0,,,,,,
94.98140037200436,1.509408535141655,170.3056075801737,194.283622367914,180.0,0.0,0,,,,,,
95.98140037200436,1.5149640906972106,170.9017797514953,193.48076575422655,180.0,0.0,0,,,,,,
96.98140037200436,1.5205196462527661,171.4979519228169,192.6779091405391,180.0,0.0,0,,,,,,
97.98140037200436,1.5260752018083217,172.0941240941385,191.87505252685165,180.0,0.0,0,,,,,,
98.98140037200436,1.5316307573638772,172.6902962654601,191.0721959131642,180.0,0.0,0,,,,,,
99.98140037200436,1.5371863129194328,173.2864684367817,190.26933929947674,180.0,0.0,0,,,,,,
100.98140037200436,1.5427418684749883,173.8826406081033,189.4664826857893,180.0,0.0,0,,,,,,
101.98140037200436,1.5482974240305438,174.47881277942489,188.66362607210183,180.0,0.0,0,,,,,,
102.98140037200436,1.5538529795860994,175.07498495074648,187.86076945841438,180.0,0.0,0,,,,,,
103.98140037200436,1.559408535141655,175.67115712206808,187.05791284472693,180.0,0.0,0,,,,,,
104.98140037200436,1.5649640906972104,176.26732929338968,186.25505623103948,180.0,0.0,0,,,,,,
105.98140037200436,1.570519646252766,176.86350146471128,185.45219961735202,180.0,0.0,0,,,,,,
106.98140037200436,1.5760752018083215,177.45967363603287,184.64934300366457,180.0,0.0,0,,,,,,
107.98140037200436,1.581630757363877,178.05584580735447,183.84648638997712,180.0,0.0,0,,,,,,
108.98140037200436,1.5871863129194326,178.65201797867607,183.04362977628966,180.0,0.0,0,,,,,,
109.98140037200436,1.592741868474988,179.24819014999767,182.2407731626022,180.0,0.0,0,,,,,,
110.98140037200436,1.5982974240305436,179.84436232131927,181.43791654891476,180.0,0.0,0,,,,,,
111.98140037200436,1.6038529795860992,180.44053449264086,180.6350599352273,180.0,0.0,0,,,,,,
112.98140037200436,1.6094085351416547,181.03670666396246,179.83220332153985,180.0,0.0,0,,,,,,
113.98140037200436,1.6149640906972103,181.63287883528406,179.0293467078524,180.0,0.0,0,,,,,,
114.98140037200436,1.6205196462527658,182.22905100660566,178.22649009416494,180.0,0.0,0,,,,,,
115.98140037200436,1.6260752018083213,182.82522317792726,177.4236334804775,180.0,0.0,0,,,,,,
116.98140037200436,1.6316307573638769,183.42139534924885,176.62077686679004,180.0,0.0,0,,,,,,
117.98140037200436,1.6371863129194324,184.01756752057045,175.81792025310259,180.0,0.0,0,,,,,,
118.98140037200436,1.642741868474988,184.61373969189205,175.01506363941513,180.0,0.0,0,,,,,,
119.98140037200436,1.6482974240305435,185.20991186321365,174.21220702572768,180.0,0.0,0,,,,,,
120.98140037200436,1.653852979586099,185.80608403453525,173.40935041204023,180.0,0.0,0,,,,,,
121.98140037200436,1.6594085351416545,186.40225620585684,172.60649379835277,180.0,0.0,0,,,,,,
122.98140037200436,1.66496409069721,186.99842837717844,171.80363718466532,180.0,0.0,0,,,,,,
123.98140037200436,1.6705196462527656,187.59460054850004,171.00078057097787,180.0,0.0,0,,,,,,
124.98140037200436,1.6760752018083211,188.19077271982164,170.1979239572904,180.0,0.0,0,,,,,,
125.98140037200436,1.6816307573638767,188.78694489114324,169.39506734360296,180.0,0.0,0,,,,,,
126.98140037200436,1.6871863129194322,189.38311706246483,168.5922107299155,180.0,0.0,0,,,,,,
127.98140037200436,1.6927418684749878,189.97928923378643,167.78935411622805,180.0,0.0,0,,,,,,
128.98140037200434,1.6982974240305433,190.57546140510803,166.9864975025406,180.0,0.0,0,,,,,,
129.98140037200434,1.7038529795860988,191.17163357642963,166.18364088885315,180.0,0.0,0,,,,,,
130.98140037200434,1.7094085351416544,191.76780574775123,165.3807842751657,180.0,0.0,0,,,,,,
131.98140037200434,1.71496409069721,192.36397791907282,164.57792766147824,180.0,0.0,0,,,,,,
132.98140037200434,1.7205196462527654,192.96015009039442,163.7750710477908,180.0,0.0,0,,,,,,
133.98140037200434,1.726075201808321,193.55632226171602,162.97221443410334,180.0,0.0,0,,,,,,
134.98140037200434,1.7316307573638765,194.15249443303762,162.16935782041588,180.0,0.0,0,,,,,,
135.98140037200434,1.737186312919432,194.74866660435922,161.36650120672843,180.0,0.0,0,,,,,,
136.98140037200434,1.7427418684749876,195.3448387756808,160.56364459304098,180.0,0.0,0,,,,,,
137.98140037200434,1.7482974240305431,195.9410109470024,159.76078797935352,180.0,0.0,0,,,,,,
138.98140037200434,1.7538529795860986,196.537183118324,158.95793136566607,180.0,0.0,0,,,,,,
139.98140037200434,1.7594085351416542,197.1333552896456,158.15507475197862,180.0,0.0,0,,,,,,
140.98140037200434,1.7649640906972097,197.7295274609672,157.35221813829116,180.0,0.0,0,,,,,,
141.98140037200434,1.7705196462527653,198.3256996322888,156.5493615246037,180.0,0.0,0,,,,,,
142.98140037200434,1.7760752018083208,198.9218718036104,155.74650491091626,180.0,0.0,0,,,,,,
143.98140037200434,1.7816307573638763,199.518043974932,154.9436482972288,180.0,0.0,0,,,,,,
144.98140037200434,1.7871863129194319,200.1142161462536,154.14079168354135,180.0,0.0,0,,,,,,
145.98140037200434,1.7927418684749874,200.7103883175752,153.3379350698539,180.0,0.0,0,,,,,,
146.98140037200434,1.798297424030543,201.3065604888968,152.53507845616645,180.0,0.0,0,,,,,,
147.98140037200434,1.8038529795860985,201.9027326602184,151.732221842479,180.0,0.0,0,,,,,,
148.98140037200434,1.809408535141654,202.49890483154,150.92936522879154,180.0,0.0,0,,,,,,
149.98140037200434,1.8149640906972095,203.0950770028616,150.1265086151041,180.0,0.0,0,,,,,,
150.98140037200434,1.820519646252765,203.69124917418318,149.32365200141663,180.0,0.0,0,,,,,,
151.98140037200434,1.8260752018083206,204.28742134550478,148.52079538772918,180.0,0.0,0,,,,,,
152.98140037200434,1.8316307573638761,204.88359351682638,147.71793877404173,180.0,0.0,0,,,,,,
153.98140037200434,1.8371863129194317,205.47976568814798,146.91508216035427,180.0,0.0,0,,,,,,
154.98140037200434,1.8427418684749872,206.07593785946958,146.11222554666682,180.0,0.0,0,,,,,,
155.98140037200434,1.8482974240305428,206.67211003079117,145.30936893297937,180.0,0.0,0,,,,,,
156.98140037200434,1.8538529795860983,207.26828220211277,144.50651231929191,180.0,0.0,0,,,,,,
157.98140037200434,1.8594085351416538,207.86445437343437,143.70365570560446,180.0,0.0,0,,,,,,
158.98140037200434,1.8649640906972094,208.46062654475597,142.900799091917,180.0,0.0,0,,,,,,
159.98140037200434,1.870519646252765,209.05679871607757,142.09794247822956,180.0,0.0,0,,,,,,
160.98140037200434,1.8760752018083204,209.65297088739916,141.2950858645421,180.0,0.0,0,,,,,,
161.98140037200434,1.881630757363876,210.24914305872076,140.49222925085465,180.0,0.0,0,,,,,,
162.98140037200434,1.8871863129194315,210.84531523004236,139.6893726371672,180.0,0.0,0,,,,,,
163.98140037200434,1.892741868474987,211.44148740136396,138.88651602347974,180.0,0.0,0,,,,,,
164.98140037200434,1.8982974240305426,212.03765957268556,138.0836594097923,180.0,0.0,0,,,,,,
165.98140037200434,1.9038529795860981,212.63383174400715,137.28080279610484,180.0,0.0,0,,,,,,
166.98140037200434,1.9094085351416537,213.23000391532875,136.47794618241738,180.0,0.0,0,,,,,,
167.98140037200434,1.9149640906972092,213.82617608665035,135.67508956872993,180.0,0.0,0,,,,,,
168.98140037200434,1.9205196462527647,214.42234825797195,134.87223295504248,180.0,0.0,0,,,,,,
169.98140037200434,1.9260752018083203,215.01852042929355,134.06937634135502,180.0,0.0,0,,,,,,
170.98140037200434,1.9316307573638758,215.61469260061514,133.26651972766757,180.0,0.0,0,,,,,,
171.98140037200434,1.9371863129194313,216.21086477193674,132.46366311398012,180.0,0.0,0,,,,,,
172.98140037200434,1.9427418684749869,216.80703694325834,131.66080650029267,180.0,0.0,0,,,,,,
173.98140037200434,1.9482974240305424,217.40320911457994,130.8579498866052,180.0,0.0,0,,,,,,
174.98140037200434,1.953852979586098,217.99938128590153,130.05509327291776,180.0,0.0,0,,,,,,
175.98140037200434,1.9594085351416535,218.59555345722313,129.2522366592303,180.0,0.0,0,,,,,,
176.98140037200434,1.964964090697209,219.19172562854473,128.44938004554285,180.0,0.0,0,,,,,,
178.0561882795654,1.9709351346281037,220.03887233126935,127.78793351686329,180.0,0.0,0,,,,,,
179.0515650757259,1.9764650057178843,220.3768535984939,126.85169442916185,180.0,0.0,0,,,,,,
180.0469418718864,1.9819948768076647,220.38989888025284,125.8564031215747,180.0,0.0,0,,,,,,
181.04231866804687,1.9875247478974452,220.07657207225773,124.91162733985381,180.0,0.0,0,,,,,,
182.03769546420736,1.9930546189872256,219.47136610313564,124.12137377214677,180.0,0.0,0,,,,,,
183.03307226036785,1.998584490077006,218.64090574218457,123.57263835755813,180.0,0.0,0,,,,,,
184.03307226036785,2.0041400456325618,217.641151703163,123.59481630741939,180.0,0.0,0,,,,,,
185.03307226036785,2.0096956011881173,216.6413976641414,123.61699425728065,180.0,0.0,0,,,,,,
186.03307226036785,2.015251156743673,215.64164362511983,123.63917220714191,180.0,0.0,0,,,,,,
187.03307226036785,2.0208067122992284,214.64188958609824,123.66135015700317,180.0,0.0,0,,,,,,
188.03307226036785,2.026362267854784,213.64213554707666,123.68352810686443,180.0,0.0,0,,,,,,
189.03307226036785,2.0319178234103394,212.64238150805508,123.70570605672569,180.0,0.0,0,,,,,,
190.03307226036785,2.037473378965895,211.6426274690335,123.72788400658695,180.0,0.0,0,,,,,,
191.03307226036785,2.0430289345214505,210.64287343001192,123.7500619564482,180.0,0.0,0,,,,,,
192.03307226036785,2.048584490077006,209.64311939099034,123.77223990630947,180.0,0.0,0,,,,,,
193.03307226036785,2.0541400456325616,208.64336535196875,123.79441785617072,180.0,0.0,0,,,,,,
194.03307226036785,2.059695601188117,207.64361131294717,123.81659580603198,180.0,0.0,0,,,,,,
195.03307226036785,2.0652511567436727,206.6438572739256,123.83877375589324,180.0,0.0,0,,,,,,
196.03307226036785,2.070806712299228,205.644103234904,123.8609517057545,180.0,0.0,0,,,,,,
197.03307226036785,2.0763622678547837,204.64434919588243,123.88312965561576,180.0,0.0,0,,,,,,
198.03307226036785,2.0819178234103393,203.64459515686085,123.90530760547702,180.0,0.0,0,,,,,,
199.03307226036785,2.087473378965895,202.64484111783926,123.92748555533828,180.0,0.0,0,,,,,,
